Timestamp,PPG1,PPG2,PPG3,PPG4,PPG5
2025-05-29 19:13:47.247,86724,9100,8546,66354,98793
2025-05-29 19:13:47.315,86732,9101,8545,66357,98792
2025-05-29 19:13:47.317,86736,9110,8548,66360,98805
2025-05-29 19:13:47.319,86731,9121,8553,66357,98834
2025-05-29 19:13:47.320,86740,9114,8555,66359,98843
2025-05-29 19:13:47.322,86735,9136,8565,66369,98839
2025-05-29 19:13:47.324,86740,9135,8567,66358,98840
2025-05-29 19:13:47.325,86750,9135,8554,66377,98845
2025-05-29 19:13:47.327,86749,9143,8568,66364,98837
2025-05-29 19:13:47.328,86767,9141,8577,66383,98849
2025-05-29 19:13:47.330,86781,9159,8583,66373,98863
2025-05-29 19:13:47.331,86766,9169,8587,66377,98872
2025-05-29 19:13:47.333,86771,9169,8598,66376,98881
2025-05-29 19:13:47.334,86776,9177,8592,66384,98871
2025-05-29 19:13:47.336,86778,9183,8596,66375,98876
2025-05-29 19:13:47.338,86787,9189,8609,66378,98885
2025-05-29 19:13:47.339,86799,9195,8604,66384,98899
2025-05-29 19:13:47.341,86798,9208,8610,66380,98888
2025-05-29 19:13:47.342,86818,9207,8614,66387,98907
2025-05-29 19:13:47.344,86822,9218,8628,66380,98913
2025-05-29 19:13:47.345,86815,9223,8626,66369,98919
2025-05-29 19:13:47.346,86830,9230,8626,66379,98922
2025-05-29 19:13:47.347,86815,9233,8623,66368,98929
2025-05-29 19:13:47.348,86809,9233,8607,66368,98940
2025-05-29 19:13:47.349,86770,9220,8607,66359,98908
2025-05-29 19:13:47.350,86734,9204,8589,66357,98901
2025-05-29 19:13:47.351,86698,9180,8569,66348,98871
2025-05-29 19:13:47.352,86676,9153,8552,66337,98842
2025-05-29 19:13:47.354,86648,9123,8543,66339,98819
2025-05-29 19:13:47.358,86627,9103,8508,66329,98813
2025-05-29 19:13:47.933,86594,9084,8492,66306,98798
2025-05-29 19:13:47.935,86569,9060,8479,66310,98776
2025-05-29 19:13:47.937,86535,9041,8466,66302,98741
2025-05-29 19:13:47.938,86521,9024,8457,66309,98699
2025-05-29 19:13:47.940,86501,9014,8455,66296,98698
2025-05-29 19:13:47.941,86489,9000,8447,66279,98696
2025-05-29 19:13:47.942,86480,8998,8429,66278,98693
2025-05-29 19:13:47.944,86475,8996,8435,66269,98676
2025-05-29 19:13:47.945,86465,8989,8438,66269,98662
2025-05-29 19:13:47.946,86459,8991,8439,66260,98671
2025-05-29 19:13:47.947,86464,8977,8437,66245,98650
2025-05-29 19:13:47.948,86454,8986,8424,66255,98669
2025-05-29 19:13:47.949,86467,8986,8438,66250,98663
2025-05-29 19:13:47.951,86467,9000,8443,66265,98658
2025-05-29 19:13:47.953,86476,8991,8449,66254,98663
2025-05-29 19:13:47.954,86479,8998,8458,66267,98669
2025-05-29 19:13:47.956,86501,9001,8462,66263,98678
2025-05-29 19:13:47.958,86476,9004,8468,66278,98696
2025-05-29 19:13:47.959,86479,9014,8461,66261,98701
2025-05-29 19:13:47.960,86488,9019,8463,66265,98704
2025-05-29 19:13:47.962,86495,9009,8468,66272,98694
2025-05-29 19:13:47.963,86503,9020,8464,66269,98697
2025-05-29 19:13:47.964,86484,9016,8474,66264,98704
2025-05-29 19:13:47.965,86502,9017,8463,66276,98697
2025-05-29 19:13:47.966,86490,9018,8465,66264,98697
2025-05-29 19:13:47.967,86495,9009,8464,66272,98687
2025-05-29 19:13:47.968,86501,9013,8465,66273,98680
2025-05-29 19:13:47.969,86495,9012,8471,66279,98701
2025-05-29 19:13:47.970,86511,9009,8460,66275,98695
2025-05-29 19:13:47.971,86501,9011,8464,66289,98697
2025-05-29 19:13:47.973,86495,9004,8458,66273,98695
2025-05-29 19:13:47.973,86518,9018,8470,66279,98689
2025-05-29 19:13:47.974,86513,9019,8464,66282,98688
2025-05-29 19:13:47.975,86525,9013,8474,66286,98700
2025-05-29 19:13:47.976,86524,9013,8473,66294,98687
2025-05-29 19:13:47.976,86542,9021,8478,66272,98726
2025-05-29 19:13:47.977,86535,9027,8487,66283,98721
2025-05-29 19:13:47.978,86537,9035,8482,66289,98712
2025-05-29 19:13:47.995,86552,9047,8495,66301,98727
2025-05-29 19:13:47.996,86561,9048,8496,66295,98725
2025-05-29 19:13:47.997,86553,9054,8508,66309,98727
2025-05-29 19:13:47.998,86581,9059,8512,66302,98727
2025-05-29 19:13:47.999,86588,9072,8505,66305,98752
2025-05-29 19:13:48.000,86592,9070,8520,66306,98761
2025-05-29 19:13:48.001,86612,9100,8526,66308,98762
2025-05-29 19:13:48.002,86629,9090,8531,66317,98764
2025-05-29 19:13:48.003,86634,9111,8526,66325,98773
2025-05-29 19:13:48.004,86647,9100,8546,66312,98789
2025-05-29 19:13:48.004,86646,9121,8546,66328,98776
2025-05-29 19:13:48.005,86647,9118,8554,66333,98813
2025-05-29 19:13:48.006,86667,9115,8556,66339,98817
2025-05-29 19:13:48.006,86685,9139,8564,66344,98818
2025-05-29 19:13:48.007,86684,9115,8581,66324,98828
2025-05-29 19:13:48.008,86709,9138,8574,66339,98830
2025-05-29 19:13:48.009,86713,9142,8584,66347,98829
2025-05-29 19:13:48.009,86724,9147,8575,66357,98836
2025-05-29 19:13:48.010,86727,9165,8589,66358,98863
2025-05-29 19:13:48.011,86737,9166,8596,66353,98864
2025-05-29 19:13:48.012,86751,9180,8597,66357,98880
2025-05-29 19:13:48.013,86751,9193,8604,66374,98885
2025-05-29 19:13:48.014,86758,9195,8607,66377,98889
2025-05-29 19:13:48.016,86764,9209,8615,66380,98897
2025-05-29 19:13:48.017,86793,9209,8620,66381,98909
2025-05-29 19:13:48.018,86794,9238,8618,66397,98922
2025-05-29 19:13:48.019,86806,9223,8624,66375,98921
2025-05-29 19:13:48.021,86817,9246,8628,66393,98933
2025-05-29 19:13:48.030,86816,9241,8642,66388,98942
2025-05-29 19:13:48.041,86832,9251,8636,66401,98936
2025-05-29 19:13:48.064,86854,9253,8641,66404,98956
2025-05-29 19:13:48.065,86850,9263,8649,66423,98952
2025-05-29 19:13:48.073,86863,9265,8659,66429,98962
2025-05-29 19:13:48.081,86865,9277,8661,66419,98974
2025-05-29 19:13:48.085,86865,9277,8661,66419,98974
2025-05-29 19:13:48.094,86894,9298,8675,66417,98997
2025-05-29 19:13:48.101,86907,9297,8685,66426,99014
2025-05-29 19:13:48.137,86887,9313,8676,66426,99015
2025-05-29 19:13:48.139,86878,9297,8692,66434,99003
2025-05-29 19:13:48.140,86864,9298,8666,66429,98992
2025-05-29 19:13:48.142,86822,9281,8656,66423,98995
2025-05-29 19:13:48.153,86804,9252,8637,66410,98980
2025-05-29 19:13:48.162,86777,9241,8607,66403,98966
2025-05-29 19:13:48.174,86751,9207,8597,66397,98934
2025-05-29 19:13:48.181,86725,9186,8567,66400,98920
2025-05-29 19:13:48.208,86694,9161,8560,66390,98899
2025-05-29 19:13:48.209,86670,9141,8531,66371,98872
2025-05-29 19:13:48.213,86650,9122,8515,66362,98849
2025-05-29 19:13:48.221,86631,9091,8514,66360,98844
2025-05-29 19:13:48.233,86614,9094,8494,66352,98805
2025-05-29 19:13:48.242,86608,9078,8505,66346,98814
2025-05-29 19:13:48.252,86593,9072,8491,66348,98802
2025-05-29 19:13:48.277,86574,9065,8492,66340,98787
2025-05-29 19:13:48.279,86576,9065,8496,66327,98784
2025-05-29 19:13:48.282,86575,9064,8498,66332,98782
2025-05-29 19:13:48.294,86556,9054,8505,66313,98785
2025-05-29 19:13:48.302,86561,9061,8494,66324,98775
2025-05-29 19:13:48.313,86557,9059,8518,66329,98762
2025-05-29 19:13:48.321,86549,9058,8500,66316,98772
2025-05-29 19:13:48.348,86574,9069,8504,66320,98768
2025-05-29 19:13:48.349,86577,9072,8505,66310,98780
2025-05-29 19:13:48.353,86591,9069,8503,66325,98785
2025-05-29 19:13:48.362,86576,9075,8519,66323,98780
2025-05-29 19:13:48.375,86592,9077,8521,66321,98795
2025-05-29 19:13:48.381,86597,9085,8525,66333,98780
2025-05-29 19:13:48.394,86599,9085,8523,66312,98802
2025-05-29 19:13:48.420,86593,9090,8531,66316,98794
2025-05-29 19:13:48.422,86602,9098,8530,66316,98801
2025-05-29 19:13:48.424,86612,9091,8533,66318,98804
2025-05-29 19:13:48.434,86612,9097,8536,66313,98806
2025-05-29 19:13:48.442,86615,9083,8534,66305,98813
2025-05-29 19:13:48.454,86608,9102,8527,66308,98807
2025-05-29 19:13:48.461,86607,9099,8536,66308,98816
2025-05-29 19:13:48.497,86600,9094,8529,66320,98815
2025-05-29 19:13:48.499,86611,9096,8536,66310,98801
2025-05-29 19:13:48.501,86609,9096,8535,66317,98809
2025-05-29 19:13:48.503,86623,9098,8536,66302,98811
2025-05-29 19:13:48.513,86608,9105,8539,66306,98815
2025-05-29 19:13:48.526,86611,9109,8533,66313,98809
2025-05-29 19:13:48.534,86621,9106,8541,66305,98812
2025-05-29 19:13:48.545,86609,9118,8545,66321,98821
2025-05-29 19:13:48.570,86645,9111,8544,66312,98832
2025-05-29 19:13:48.572,86645,9122,8551,66312,98825
2025-05-29 19:13:48.574,86645,9126,8558,66318,98831
2025-05-29 19:13:48.586,86649,9134,8561,66326,98832
2025-05-29 19:13:48.594,86651,9137,8569,66321,98843
2025-05-29 19:13:48.606,86675,9145,8570,66310,98853
2025-05-29 19:13:48.614,86672,9150,8568,66307,98856
2025-05-29 19:13:48.730,86703,9166,8588,66311,98855
2025-05-29 19:13:48.734,86705,9184,8585,66324,98872
2025-05-29 19:13:48.737,86712,9181,8590,66342,98868
2025-05-29 19:13:48.740,86729,9188,8599,66339,98896
2025-05-29 19:13:48.744,86732,9197,8601,66345,98889
2025-05-29 19:13:48.746,86733,9204,8606,66355,98906
2025-05-29 19:13:48.750,86756,9213,8622,66345,98910
2025-05-29 19:13:48.753,86769,9218,8623,66350,98932
2025-05-29 19:13:48.757,86774,9230,8628,66368,98938
2025-05-29 19:13:48.760,86781,9236,8638,66361,98941
2025-05-29 19:13:48.762,86788,9247,8643,66379,98958
2025-05-29 19:13:48.765,86802,9260,8655,66373,98960
2025-05-29 19:13:48.768,86818,9265,8656,66391,98976
2025-05-29 19:13:48.770,86825,9268,8655,66384,98992
2025-05-29 19:13:48.773,86831,9279,8668,66386,98996
2025-05-29 19:13:48.776,86836,9291,8665,66385,98998
2025-05-29 19:13:49.193,86854,9295,8676,66389,99014
2025-05-29 19:13:49.195,86851,9295,8679,66407,99013
2025-05-29 19:13:49.196,86867,9309,8679,66390,99032
2025-05-29 19:13:49.197,86870,9319,8682,66401,99050
2025-05-29 19:13:49.198,86863,9320,8694,66397,99031
2025-05-29 19:13:49.199,86882,9321,8701,66400,99058
2025-05-29 19:13:49.200,86892,9333,8706,66409,99068
2025-05-29 19:13:49.201,86891,9351,8705,66414,99090
2025-05-29 19:13:49.202,86881,9353,8710,66426,99096
2025-05-29 19:13:49.203,86884,9372,8715,66409,99090
2025-05-29 19:13:49.204,86892,9372,8725,66423,99111
2025-05-29 19:13:49.205,86908,9372,8729,66456,99111
2025-05-29 19:13:49.206,86906,9387,8735,66457,99117
2025-05-29 19:13:49.207,86913,9393,8743,66462,99126
2025-05-29 19:13:49.208,86927,9396,8742,66450,99150
2025-05-29 19:13:49.209,86938,9398,8756,66466,99135
2025-05-29 19:13:49.210,86952,9413,8750,66448,99136
2025-05-29 19:13:49.211,86970,9420,8756,66476,99144
2025-05-29 19:13:49.212,86971,9422,8761,66459,99168
2025-05-29 19:13:49.213,86959,9433,8760,66476,99155
2025-05-29 19:13:49.214,86952,9435,8759,66453,99172
2025-05-29 19:13:49.215,86929,9415,8752,66470,99171
2025-05-29 19:13:49.216,86906,9413,8737,66457,99145
2025-05-29 19:13:49.217,86865,9386,8722,66451,99144
2025-05-29 19:13:49.218,86846,9362,8695,66439,99131
2025-05-29 19:13:49.220,86830,9339,8676,66432,99127
2025-05-29 19:13:49.221,86793,9305,8669,66424,99083
2025-05-29 19:13:49.222,86762,9290,8645,66425,99052
2025-05-29 19:13:49.222,86744,9275,8632,66406,99039
2025-05-29 19:13:49.223,86741,9250,8628,66393,99019
2025-05-29 19:13:49.224,86734,9231,8610,66393,98985
2025-05-29 19:13:49.225,86716,9216,8594,66388,98992
2025-05-29 19:13:49.226,86699,9209,8583,66377,98981
2025-05-29 19:13:49.226,86702,9208,8587,66377,98957
2025-05-29 19:13:49.227,86676,9197,8593,66376,98956
2025-05-29 19:13:49.228,86677,9194,8572,66368,98931
2025-05-29 19:13:49.229,86661,9193,8578,66355,98955
2025-05-29 19:13:49.229,86657,9188,8581,66358,98934
2025-05-29 19:13:49.230,86649,9195,8584,66350,98920
2025-05-29 19:13:49.231,86660,9202,8586,66353,98928
2025-05-29 19:13:49.232,86661,9208,8586,66334,98919
2025-05-29 19:13:49.233,86669,9196,8585,66357,98938
2025-05-29 19:13:49.233,86679,9208,8592,66364,98936
2025-05-29 19:13:49.234,86691,9206,8597,66358,98939
2025-05-29 19:13:49.235,86689,9218,8604,66358,98965
2025-05-29 19:13:49.237,86695,9226,8613,66359,98963
2025-05-29 19:13:49.290,86699,9234,8609,66359,98970
2025-05-29 19:13:49.292,86706,9231,8622,66372,98967
2025-05-29 19:13:49.293,86695,9230,8617,66353,98985
2025-05-29 19:13:49.294,86715,9232,8614,66371,98962
2025-05-29 19:13:49.295,86697,9233,8621,66357,98983
2025-05-29 19:13:49.297,86713,9228,8619,66354,98962
2025-05-29 19:13:49.304,86711,9230,8613,66359,98979
2025-05-29 19:13:49.317,86723,9234,8611,66358,98979
2025-05-29 19:13:49.325,86713,9232,8615,66365,98976
2025-05-29 19:13:49.338,86707,9235,8613,66371,98970
2025-05-29 19:13:49.357,86716,9231,8609,66363,98980
2025-05-29 19:13:49.359,86710,9225,8612,66362,98977
2025-05-29 19:13:49.366,86719,9231,8604,66357,98983
2025-05-29 19:13:49.377,86725,9226,8606,66368,98976
2025-05-29 19:13:49.386,86737,9225,8603,66360,98972
2025-05-29 19:13:49.397,86722,9230,8606,66361,98974
2025-05-29 19:13:49.406,86735,9237,8611,66359,98960
2025-05-29 19:13:49.426,86748,9243,8613,66363,98978
2025-05-29 19:13:49.427,86754,9247,8613,66359,98979
2025-05-29 19:13:49.437,86768,9254,8619,66371,98968
2025-05-29 19:13:49.445,86772,9257,8623,66374,98991
2025-05-29 19:13:49.457,86761,9261,8621,66375,98990
2025-05-29 19:13:49.465,86817,9268,8622,66374,99000
2025-05-29 19:13:49.494,86840,9281,8634,66368,98998
2025-05-29 19:13:49.495,86849,9283,8638,66389,99000
2025-05-29 19:13:49.497,86871,9299,8650,66377,99023
2025-05-29 19:13:49.509,86873,9291,8650,66395,99017
2025-05-29 19:13:49.518,86874,9310,8652,66398,99031
2025-05-29 19:13:49.530,86843,9313,8663,66420,99043
2025-05-29 19:13:49.538,86859,9325,8684,66447,99067
2025-05-29 19:13:49.567,86837,9347,8701,66444,99128
2025-05-29 19:13:49.569,86750,9364,8698,66450,99172
2025-05-29 19:13:49.571,86679,9385,8689,66423,99193
2025-05-29 19:13:49.577,86633,9385,8694,66409,99216
2025-05-29 19:13:49.590,86643,9394,8703,66450,99221
2025-05-29 19:13:49.597,86639,9415,8712,66466,99281
2025-05-29 19:13:49.609,86595,9408,8718,66469,99296
2025-05-29 19:13:49.637,86511,9421,8716,66451,99336
2025-05-29 19:13:49.639,86447,9407,8700,66408,99290
2025-05-29 19:13:49.640,86373,9395,8695,66387,99277
2025-05-29 19:13:49.650,86354,9401,8683,66365,99243
2025-05-29 19:13:49.657,86331,9385,8690,66346,99215
2025-05-29 19:13:49.669,86300,9391,8688,66366,99221
2025-05-29 19:13:49.678,86257,9380,8679,66357,99238
2025-05-29 19:13:49.705,86232,9389,8676,66355,99219
2025-05-29 19:13:49.707,86212,9392,8682,66361,99228
2025-05-29 19:13:49.710,86185,9391,8687,66408,99239
2025-05-29 19:13:49.717,86160,9401,8681,66400,99313
2025-05-29 19:13:49.730,86118,9397,8686,66401,99329
2025-05-29 19:13:49.738,86127,9392,8683,66381,99306
2025-05-29 19:13:49.749,86157,9387,8682,66379,99318
2025-05-29 19:13:49.775,86169,9373,8699,66374,99285
2025-05-29 19:13:49.777,86182,9366,8694,66366,99277
2025-05-29 19:13:49.778,86275,9363,8687,66372,99258
2025-05-29 19:13:49.790,86349,9374,8683,66365,99259
2025-05-29 19:13:49.797,86351,9371,8686,66358,99257
2025-05-29 19:13:49.810,86406,9368,8685,66348,99235
2025-05-29 19:13:49.817,86466,9366,8689,66338,99220
2025-05-29 19:13:49.842,86491,9351,8686,66346,99205
2025-05-29 19:13:49.844,86502,9354,8691,66349,99206
2025-05-29 19:13:49.850,86497,9369,8678,66354,99191
2025-05-29 19:13:49.858,86490,9375,8681,66343,99196
2025-05-29 19:13:49.869,86489,9341,8670,66351,99200
2025-05-29 19:13:49.877,86444,9313,8657,66357,99183
2025-05-29 19:13:49.889,86400,9284,8627,66342,99156
2025-05-29 19:13:49.909,86400,9284,8627,66342,99156
2025-05-29 19:13:49.910,86361,9214,8604,66359,99142
2025-05-29 19:13:49.912,86357,9195,8596,66354,99128
2025-05-29 19:13:49.922,86363,9186,8562,66341,99118
2025-05-29 19:13:49.929,86350,9159,8558,66355,99109
2025-05-29 19:13:49.938,86329,9145,8546,66343,99110
2025-05-29 19:13:49.949,86348,9128,8542,66341,99100
2025-05-29 19:13:49.979,86356,9111,8534,66332,99064
2025-05-29 19:13:49.980,86371,9105,8536,66329,99060
2025-05-29 19:13:49.982,86397,9100,8531,66326,99072
2025-05-29 19:13:49.990,86402,9095,8524,66319,99069
2025-05-29 19:13:50.002,86410,9105,8527,66332,99038
2025-05-29 19:13:50.009,86443,9095,8524,66326,99042
2025-05-29 19:13:50.022,86476,9097,8537,66321,99048
2025-05-29 19:13:50.051,86488,9102,8531,66333,99049
2025-05-29 19:13:50.053,86495,9101,8534,66341,99076
2025-05-29 19:13:50.056,86548,9115,8542,66350,99076
2025-05-29 19:13:50.061,86559,9106,8551,66358,99057
2025-05-29 19:13:50.070,86593,9115,8559,66348,99078
2025-05-29 19:13:50.082,86629,9128,8551,66362,99087
2025-05-29 19:13:50.089,86640,9131,8561,66366,99111
2025-05-29 19:13:50.125,86665,9143,8574,66387,99121
2025-05-29 19:13:50.127,86689,9150,8577,66393,99133
2025-05-29 19:13:50.129,86700,9149,8585,66397,99118
2025-05-29 19:13:50.130,86736,9147,8593,66404,99148
2025-05-29 19:13:50.141,86737,9141,8593,66392,99140
2025-05-29 19:13:50.149,86739,9138,8597,66395,99129
2025-05-29 19:13:50.161,86758,9140,8604,66401,99146
2025-05-29 19:13:50.170,86767,9110,8644,66400,99130
2025-05-29 19:13:50.194,86788,9122,8659,66396,99145
2025-05-29 19:13:50.195,86781,9133,8644,66399,99144
2025-05-29 19:13:50.201,86793,9124,8623,66415,99142
2025-05-29 19:13:50.210,86783,9125,8634,66404,99152
2025-05-29 19:13:50.222,86817,9137,8587,66412,99125
2025-05-29 19:13:50.229,86826,9127,8571,66396,99143
2025-05-29 19:13:50.241,86840,9140,8591,66406,99135
2025-05-29 19:13:50.262,86843,9168,8582,66393,99144
2025-05-29 19:13:50.264,86867,9159,8602,66392,99125
2025-05-29 19:13:50.270,86879,9168,8621,66388,99128
2025-05-29 19:13:50.282,86891,9174,8612,66389,99129
2025-05-29 19:13:50.294,86905,9173,8609,66408,99126
2025-05-29 19:13:50.301,86910,9187,8611,66409,99129
2025-05-29 19:13:50.310,86918,9201,8624,66431,99146
2025-05-29 19:13:50.333,86941,9205,8633,66422,99159
2025-05-29 19:13:50.334,86955,9207,8639,66438,99160
2025-05-29 19:13:50.341,86962,9216,8651,66429,99143
2025-05-29 19:13:50.350,86980,9230,8652,66428,99154
2025-05-29 19:13:50.362,86987,9242,8649,66428,99169
2025-05-29 19:13:50.370,86986,9253,8659,66428,99166
2025-05-29 19:13:50.381,87013,9248,8667,66439,99162
2025-05-29 19:13:50.404,87026,9261,8682,66427,99178
2025-05-29 19:13:50.406,87045,9274,8675,66445,99195
2025-05-29 19:13:50.413,87063,9283,8675,66431,99199
2025-05-29 19:13:50.421,87060,9298,8689,66443,99200
2025-05-29 19:13:50.433,87073,9295,8698,66445,99199
2025-05-29 19:13:50.442,87080,9302,8709,66447,99197
2025-05-29 19:13:50.453,87105,9320,8711,66444,99191
2025-05-29 19:13:50.473,87114,9329,8707,66450,99209
2025-05-29 19:13:50.475,87113,9344,8719,66449,99233
2025-05-29 19:13:50.481,87144,9361,8727,66479,99241
2025-05-29 19:13:50.493,87133,9351,8732,66490,99261
2025-05-29 19:13:50.501,87149,9365,8744,66489,99274
2025-05-29 19:13:50.513,87167,9374,8749,66488,99303
2025-05-29 19:13:50.521,87148,9390,8753,66483,99289
2025-05-29 19:13:50.540,87151,9390,8757,66483,99298
2025-05-29 19:13:50.542,87162,9398,8768,66477,99300
2025-05-29 19:13:50.553,87167,9415,8721,66481,99307
2025-05-29 19:13:50.561,87166,9414,8767,66468,99315
2025-05-29 19:13:50.573,87176,9419,8762,66482,99322
2025-05-29 19:13:50.582,87171,9432,8770,66477,99325
2025-05-29 19:13:50.610,87188,9434,8771,66489,99347
2025-05-29 19:13:50.612,87187,9449,8800,66492,99358
2025-05-29 19:13:50.613,87186,9457,8795,66493,99363
2025-05-29 19:13:50.621,87209,9459,8781,66488,99380
2025-05-29 19:13:50.634,87199,9470,8776,66499,99365
2025-05-29 19:13:50.641,87214,9473,8787,66495,99357
2025-05-29 19:13:50.654,87224,9484,8801,66494,99363
2025-05-29 19:13:50.682,87236,9497,8804,66492,99357
2025-05-29 19:13:50.683,87233,9496,8813,66483,99365
2025-05-29 19:13:50.685,87251,9499,8808,66504,99390
2025-05-29 19:13:50.693,87248,9506,8827,66482,99388
2025-05-29 19:13:50.701,87236,9521,8819,66486,99396
2025-05-29 19:13:50.714,87220,9517,8802,66492,99396
2025-05-29 19:13:50.721,87179,9517,8804,66476,99382
2025-05-29 19:13:50.750,87150,9495,8788,66471,99358
2025-05-29 19:13:50.751,87112,9480,8776,66458,99345
2025-05-29 19:13:50.753,87101,9459,8747,66436,99325
2025-05-29 19:13:50.761,87062,9435,8732,66437,99307
2025-05-29 19:13:50.774,87029,9418,8710,66419,99277
2025-05-29 19:13:50.782,87006,9401,8698,66428,99249
2025-05-29 19:13:50.793,86978,9360,8680,66409,99224
2025-05-29 19:13:50.819,86953,9352,8671,66395,99210
2025-05-29 19:13:50.821,86916,9337,8642,66387,99196
2025-05-29 19:13:50.825,86890,9328,8641,66385,99196
2025-05-29 19:13:50.834,86872,9309,8633,66381,99163
2025-05-29 19:13:50.845,86853,9293,8627,66374,99172
2025-05-29 19:13:50.854,86840,9291,8631,66354,99150
2025-05-29 19:13:50.865,86836,9287,8618,66335,99158
2025-05-29 19:13:50.889,86825,9279,8607,66326,99126
2025-05-29 19:13:50.891,86832,9280,8600,66333,99119
2025-05-29 19:13:50.894,86810,9288,8607,66326,99117
2025-05-29 19:13:50.906,86805,9276,8597,66328,99125
2025-05-29 19:13:50.914,86804,9284,8604,66325,99114
2025-05-29 19:13:50.926,86796,9283,8602,66322,99096
2025-05-29 19:13:50.934,86804,9289,8605,66322,99093
2025-05-29 19:13:50.963,86819,9288,8610,66322,99107
2025-05-29 19:13:50.964,86823,9299,8613,66334,99106
2025-05-29 19:13:50.966,86816,9301,8620,66317,99069
2025-05-29 19:13:50.974,86823,9311,8619,66317,99087
2025-05-29 19:13:50.985,86824,9310,8633,66333,99080
2025-05-29 19:13:50.994,86804,9315,8628,66326,99104
2025-05-29 19:13:51.006,86807,9319,8634,66333,99096
2025-05-29 19:13:51.032,86811,9312,8635,66322,99119
2025-05-29 19:13:51.034,86812,9317,8620,66323,99126
2025-05-29 19:13:51.035,86793,9308,8633,66337,99139
2025-05-29 19:13:51.046,86795,9310,8639,66333,99144
2025-05-29 19:13:51.054,86780,9306,8621,66321,99126
2025-05-29 19:13:51.065,86764,9307,8620,66333,99148
2025-05-29 19:13:51.074,86757,9302,8623,66322,99133
2025-05-29 19:13:51.103,86766,9299,8623,66325,99127
2025-05-29 19:13:51.104,86758,9287,8617,66319,99106
2025-05-29 19:13:51.106,86770,9282,8619,66306,99107
2025-05-29 19:13:51.114,86769,9283,8603,66302,99101
2025-05-29 19:13:51.126,86758,9289,8609,66304,99087
2025-05-29 19:13:51.134,86745,9299,8611,66298,99077
2025-05-29 19:13:51.145,86757,9289,8611,66302,99083
2025-05-29 19:13:51.174,86752,9285,8615,66291,99082
2025-05-29 19:13:51.176,86765,9296,8609,66286,99084
2025-05-29 19:13:51.180,86736,9298,8617,66299,99105
2025-05-29 19:13:51.186,86760,9303,8622,66309,99072
2025-05-29 19:13:51.194,86762,9298,8621,66306,99087
2025-05-29 19:13:51.206,86773,9298,8629,66293,99092
2025-05-29 19:13:51.214,86789,9301,8626,66287,99095
2025-05-29 19:13:51.249,86788,9312,8620,66291,99088
2025-05-29 19:13:51.250,86804,9326,8631,66296,99084
2025-05-29 19:13:51.252,86819,9321,8635,66298,99083
2025-05-29 19:13:51.258,86817,9337,8639,66297,99087
2025-05-29 19:13:51.266,86827,9335,8642,66315,99116
2025-05-29 19:13:51.278,86825,9346,8642,66305,99120
2025-05-29 19:13:51.286,86832,9340,8650,66325,99129
2025-05-29 19:13:51.298,86852,9338,8652,66327,99119
2025-05-29 19:13:51.332,86876,9348,8658,66327,99164
2025-05-29 19:13:51.335,86884,9353,8661,66354,99147
2025-05-29 19:13:51.337,86912,9359,8661,66290,99161
2025-05-29 19:13:51.339,86916,9362,8662,66338,99170
2025-05-29 19:13:51.346,86937,9374,8670,66373,99189
2025-05-29 19:13:51.359,86950,9369,8679,66357,99220
2025-05-29 19:13:51.365,86938,9385,8674,66369,99227
2025-05-29 19:13:51.378,86970,9394,8674,66360,99237
2025-05-29 19:13:51.408,86965,9400,8679,66372,99246
2025-05-29 19:13:51.410,86985,9412,8670,66375,99258
2025-05-29 19:13:51.412,86991,9409,8682,66395,99260
2025-05-29 19:13:51.417,86994,9410,8689,66394,99251
2025-05-29 19:13:51.426,87020,9411,8698,66419,99271
2025-05-29 19:13:51.438,87036,9421,8698,66400,99287
2025-05-29 19:13:51.447,87049,9432,8712,66438,99313
2025-05-29 19:13:51.488,87051,9438,8704,66419,99338
2025-05-29 19:13:51.490,87039,9438,8707,66433,99336
2025-05-29 19:13:51.493,87041,9446,8709,66423,99348
2025-05-29 19:13:51.495,87034,9426,8703,66425,99324
2025-05-29 19:13:51.498,87005,9409,8701,66424,99344
2025-05-29 19:13:51.506,86982,9402,8674,66396,99296
2025-05-29 19:13:51.518,86945,9382,8637,66407,99319
2025-05-29 19:13:51.526,86924,9363,8642,66404,99282
2025-05-29 19:13:51.568,86907,9322,8621,66397,99264
2025-05-29 19:13:51.571,86871,9298,8598,66379,99253
2025-05-29 19:13:51.573,86850,9277,8583,66362,99221
2025-05-29 19:13:51.577,86824,9266,8558,66364,99223
2025-05-29 19:13:51.579,86791,9238,8546,66370,99207
2025-05-29 19:13:51.586,86780,9220,8542,66354,99163
2025-05-29 19:13:51.598,86762,9195,8525,66349,99161
2025-05-29 19:13:51.607,86761,9185,8532,66343,99145
2025-05-29 19:13:51.647,86744,9169,8527,66326,99136
2025-05-29 19:13:51.649,86739,9175,8522,66320,99142
2025-05-29 19:13:51.651,86739,9175,8522,66320,99142
2025-05-29 19:13:51.653,86732,9158,8524,66319,99116
2025-05-29 19:13:51.658,86742,9156,8516,66322,99125
2025-05-29 19:13:51.666,86732,9154,8514,66311,99113
2025-05-29 19:13:51.678,86747,9148,8514,66311,99115
2025-05-29 19:13:51.687,86742,9157,8516,66308,99116
2025-05-29 19:13:51.722,86747,9149,8521,66318,99167
2025-05-29 19:13:51.724,86747,9149,8521,66318,99167
2025-05-29 19:13:51.726,86747,9149,8521,66318,99167
2025-05-29 19:13:51.728,86792,9159,8531,66332,99171
2025-05-29 19:13:51.729,86799,9160,8526,66331,99112
2025-05-29 19:13:51.731,86811,9161,8538,66335,99132
2025-05-29 19:13:51.738,86817,9163,8542,66324,99132
2025-05-29 19:13:51.750,86828,9170,8539,66338,99140
2025-05-29 19:13:51.758,86836,9165,8528,66332,99135
2025-05-29 19:13:51.770,86838,9173,8535,66352,99131
2025-05-29 19:13:51.792,86836,9179,8539,66348,99136
2025-05-29 19:13:51.793,86850,9159,8540,66356,99123
2025-05-29 19:13:51.798,86850,9164,8539,66363,99120
2025-05-29 19:13:51.810,86863,9158,8549,66344,99118
2025-05-29 19:13:51.817,86860,9165,8529,66337,99115
2025-05-29 19:13:51.829,86858,9157,8524,66339,99114
2025-05-29 19:13:51.838,86876,9156,8533,66329,99078
2025-05-29 19:13:51.863,86893,9146,8528,66341,99062
2025-05-29 19:13:51.865,86887,9136,8538,66321,99060
2025-05-29 19:13:51.870,86907,9150,8524,66317,99056
2025-05-29 19:13:51.878,86902,9151,8526,66334,99067
2025-05-29 19:13:51.890,86901,9156,8525,66340,99050
2025-05-29 19:13:51.898,86928,9151,8534,66359,99045
2025-05-29 19:13:51.910,86916,9153,8542,66339,99073
2025-05-29 19:13:51.935,86955,9154,8552,66323,99063
2025-05-29 19:13:51.937,86955,9172,8539,66324,99080
2025-05-29 19:13:51.938,86961,9178,8544,66335,99068
2025-05-29 19:13:51.950,86969,9184,8556,66343,99055
2025-05-29 19:13:51.958,86993,9189,8567,66356,99086
2025-05-29 19:13:51.970,87005,9194,8572,66337,99102
2025-05-29 19:13:51.978,87013,9212,8566,66362,99115
2025-05-29 19:13:52.006,87009,9207,8567,66364,99141
2025-05-29 19:13:52.008,87014,9224,8576,66366,99151
2025-05-29 19:13:52.010,87027,9234,8592,66358,99152
2025-05-29 19:13:52.018,87029,9244,8597,66388,99183
2025-05-29 19:13:52.031,87010,9256,8602,66398,99189
2025-05-29 19:13:52.038,87010,9259,8605,66400,99206
2025-05-29 19:13:52.051,87002,9273,8613,66419,99218
2025-05-29 19:13:52.115,86976,9282,8613,66434,99243
2025-05-29 19:13:52.119,86968,9292,8631,66440,99268
2025-05-29 19:13:52.122,86962,9300,8634,66445,99278
2025-05-29 19:13:52.125,86938,9313,8644,66458,99298
2025-05-29 19:13:52.128,86919,9322,8661,66454,99336
2025-05-29 19:13:52.131,86895,9323,8668,66453,99362
2025-05-29 19:13:52.133,86861,9325,8666,66463,99355
2025-05-29 19:13:52.136,86855,9332,8676,66460,99357
2025-05-29 19:13:52.139,86855,9343,8674,66443,99366
2025-05-29 19:13:52.150,86839,9356,8676,66444,99387
2025-05-29 19:13:52.162,86830,9355,8685,66451,99385
2025-05-29 19:13:52.203,86826,9366,8693,66441,99378
2025-05-29 19:13:52.205,86835,9359,8697,66446,99373
2025-05-29 19:13:52.207,86841,9359,8704,66459,99389
2025-05-29 19:13:52.208,86860,9371,8701,66439,99397
2025-05-29 19:13:52.210,86850,9371,8695,66441,99402
2025-05-29 19:13:52.221,86860,9385,8704,66456,99397
2025-05-29 19:13:52.230,86857,9392,8706,66453,99390
2025-05-29 19:13:52.242,86857,9383,8713,66464,99414
2025-05-29 19:13:52.249,86832,9383,8713,66455,99404
2025-05-29 19:13:52.269,86799,9370,8684,66450,99404
2025-05-29 19:13:52.270,86765,9355,8677,66458,99378
2025-05-29 19:13:52.282,86720,9322,8643,66441,99354
2025-05-29 19:13:52.289,86680,9289,8637,66436,99317
2025-05-29 19:13:52.302,86650,9259,8623,66431,99299
2025-05-29 19:13:52.309,86629,9240,8580,66434,99294
2025-05-29 19:13:52.341,86587,9219,8576,66429,99276
2025-05-29 19:13:52.343,86590,9202,8555,66422,99244
2025-05-29 19:13:52.345,86561,9164,8532,66422,99207
2025-05-29 19:13:52.350,86543,9140,8518,66422,99201
2025-05-29 19:13:52.362,86533,9127,8513,66434,99184
2025-05-29 19:13:52.369,86520,9119,8507,66428,99196
2025-05-29 19:13:52.381,86484,9120,8505,66429,99197
2025-05-29 19:13:52.414,86465,9115,8492,66428,99188
2025-05-29 19:13:52.416,86445,9104,8500,66434,99166
2025-05-29 19:13:52.418,86417,9095,8487,66416,99181
2025-05-29 19:13:52.422,86381,9099,8495,66410,99182
2025-05-29 19:13:52.431,86364,9099,8493,66426,99171
2025-05-29 19:13:52.443,86358,9100,8496,66411,99167
2025-05-29 19:13:52.450,86311,9107,8488,66404,99185
2025-05-29 19:13:52.462,86307,9092,8490,66406,99168
2025-05-29 19:13:52.496,86298,9100,8494,66413,99179
2025-05-29 19:13:52.498,86303,9099,8499,66411,99160
2025-05-29 19:13:52.499,86293,9113,8504,66391,99152
2025-05-29 19:13:52.502,86306,9101,8512,66401,99142
2025-05-29 19:13:52.510,86306,9098,8516,66402,99144
2025-05-29 19:13:52.522,86288,9093,8520,66405,99127
2025-05-29 19:13:52.530,86311,9098,8519,66382,99119
2025-05-29 19:13:52.541,86306,9099,8512,66387,99119
2025-05-29 19:13:52.570,86297,9099,8506,66389,99116
2025-05-29 19:13:52.572,86295,9104,8515,66409,99111
2025-05-29 19:13:52.574,86276,9084,8503,66404,99102
2025-05-29 19:13:52.582,86281,9088,8511,66413,99112
2025-05-29 19:13:52.594,86284,9097,8510,66398,99105
2025-05-29 19:13:52.602,86276,9075,8492,66389,99103
2025-05-29 19:13:52.614,86265,9094,8503,66405,99104
2025-05-29 19:13:52.644,86252,9077,8494,66403,99099
2025-05-29 19:13:52.646,86267,9073,8506,66383,99086
2025-05-29 19:13:52.647,86267,9059,8495,66377,99070
2025-05-29 19:13:52.654,86257,9066,8490,66376,99079
2025-05-29 19:13:52.662,86251,9071,8492,66384,99059
2025-05-29 19:13:52.675,86250,9056,8491,66392,99047
2025-05-29 19:13:52.682,86259,9070,8500,66387,99042
2025-05-29 19:13:52.716,86244,9065,8501,66388,99051
2025-05-29 19:13:52.717,86257,9066,8501,66383,99056
2025-05-29 19:13:52.719,86259,9075,8509,66374,99048
2025-05-29 19:13:52.722,86271,9067,8503,66384,99067
2025-05-29 19:13:52.733,86266,9078,8509,66380,99059
2025-05-29 19:13:52.743,86283,9084,8509,66372,99067
2025-05-29 19:13:52.754,86279,9089,8511,66390,99067
2025-05-29 19:13:52.761,86261,9092,8519,66391,99080
2025-05-29 19:13:52.788,86271,9099,8522,66390,99083
2025-05-29 19:13:52.791,86273,9104,8530,66402,99103
2025-05-29 19:13:52.794,86284,9111,8535,66409,99089
2025-05-29 19:13:52.802,86292,9118,8543,66406,99110
2025-05-29 19:13:52.814,86291,9115,8532,66402,99108
2025-05-29 19:13:52.821,86306,9120,8541,66402,99109
2025-05-29 19:13:52.833,86294,9122,8537,66398,99108
2025-05-29 19:13:52.861,86311,9128,8541,66398,99114
2025-05-29 19:13:52.863,86315,9134,8547,66406,99110
2025-05-29 19:13:52.864,86322,9145,8544,66404,99105
2025-05-29 19:13:52.875,86322,9143,8547,66417,99116
2025-05-29 19:13:52.882,86329,9142,8551,66411,99103
2025-05-29 19:13:52.894,86348,9138,8557,66419,99107
2025-05-29 19:13:52.906,86354,9147,8574,66407,99124
2025-05-29 19:13:52.931,86346,9150,8560,66411,99124
2025-05-29 19:13:52.933,86360,9159,8568,66412,99110
2025-05-29 19:13:52.935,86368,9165,8561,66414,99119
2025-05-29 19:13:52.941,86368,9167,8564,66399,99115
2025-05-29 19:13:52.953,86383,9170,8575,66402,99117
2025-05-29 19:13:52.962,86402,9176,8575,66394,99111
2025-05-29 19:13:52.973,86395,9170,8576,66395,99109
2025-05-29 19:13:53.002,86387,9186,8575,66405,99123
2025-05-29 19:13:53.003,86384,9178,8581,66397,99104
2025-05-29 19:13:53.005,86368,9178,8580,66404,99118
2025-05-29 19:13:53.013,86336,9172,8572,66390,99098
2025-05-29 19:13:53.026,86320,9161,8549,66359,99078
2025-05-29 19:13:53.034,86260,9138,8528,66372,99044
2025-05-29 19:13:53.045,86234,9109,8520,66356,99026
2025-05-29 19:13:53.069,86185,9086,8492,66344,98992
2025-05-29 19:13:53.071,86160,9058,8476,66344,98955
2025-05-29 19:13:53.073,86118,9032,8461,66328,98955
2025-05-29 19:13:53.086,86094,9010,8435,66321,98916
2025-05-29 19:13:53.093,86063,8988,8412,66312,98899
2025-05-29 19:13:53.105,86034,8971,8395,66295,98869
2025-05-29 19:13:53.113,86026,8949,8383,66291,98852
2025-05-29 19:13:53.137,86006,8930,8377,66279,98809
2025-05-29 19:13:53.139,85987,8917,8373,66262,98811
2025-05-29 19:13:53.146,85971,8911,8366,66258,98785
2025-05-29 19:13:53.154,85957,8901,8355,66247,98760
2025-05-29 19:13:53.166,85950,8886,8351,66245,98761
2025-05-29 19:13:53.174,85935,8888,8354,66236,98746
2025-05-29 19:13:53.185,85903,8888,8346,66240,98729
2025-05-29 19:13:53.211,85919,8875,8355,66226,98740
2025-05-29 19:13:53.213,85895,8890,8359,66214,98727
2025-05-29 19:13:53.215,85901,8875,8350,66228,98713
2025-05-29 19:13:53.225,85892,8884,8344,66221,98721
2025-05-29 19:13:53.234,85909,8881,8361,66230,98707
2025-05-29 19:13:53.246,85906,8890,8357,66225,98686
2025-05-29 19:13:53.254,85884,8895,8356,66225,98690
2025-05-29 19:13:53.285,85894,8881,8363,66238,98698
2025-05-29 19:13:53.287,85880,8886,8354,66223,98685
2025-05-29 19:13:53.288,85881,8887,8353,66222,98695
2025-05-29 19:13:53.293,85858,8893,8358,66220,98697
2025-05-29 19:13:53.306,85855,8887,8361,66216,98688
2025-05-29 19:13:53.309,85855,8887,8361,66216,98688
2025-05-29 19:13:53.315,85849,8880,8357,66202,98675
2025-05-29 19:13:53.327,85828,8863,8350,66201,98678
2025-05-29 19:13:53.333,85827,8865,8340,66210,98656
2025-05-29 19:13:53.359,85823,8848,8344,66216,98655
2025-05-29 19:13:53.361,85802,8847,8337,66189,98628
2025-05-29 19:13:53.366,85818,8843,8332,66183,98624
2025-05-29 19:13:53.374,85822,8841,8333,66182,98604
2025-05-29 19:13:53.386,85814,8839,8322,66184,98607
2025-05-29 19:13:53.394,85816,8840,8325,66185,98599
2025-05-29 19:13:53.405,85815,8831,8328,66183,98580
2025-05-29 19:13:53.431,85820,8831,8325,66190,98589
2025-05-29 19:13:53.434,85816,8836,8332,66173,98590
2025-05-29 19:13:53.436,85824,8824,8333,66165,98572
2025-05-29 19:13:53.447,85814,8832,8335,66162,98571
2025-05-29 19:13:53.458,85816,8828,8333,66158,98584
2025-05-29 19:13:53.467,85815,8834,8337,66166,98573
2025-05-29 19:13:53.478,85824,8842,8339,66170,98568
2025-05-29 19:13:53.506,85830,8847,8336,66172,98577
2025-05-29 19:13:53.508,85833,8857,8351,66173,98573
2025-05-29 19:13:53.510,85842,8863,8348,66180,98578
2025-05-29 19:13:53.519,85842,8865,8356,66170,98565
2025-05-29 19:13:53.526,85861,8871,8359,66181,98582
2025-05-29 19:13:53.538,85854,8870,8357,66191,98595
2025-05-29 19:13:53.547,85874,8884,8370,66172,98583
2025-05-29 19:13:53.580,85864,8878,8362,66181,98580
2025-05-29 19:13:53.582,85868,8873,8372,66186,98587
2025-05-29 19:13:53.583,85890,8888,8366,66197,98599
2025-05-29 19:13:53.586,85887,8878,8374,66199,98603
2025-05-29 19:13:53.597,85889,8891,8380,66200,98603
2025-05-29 19:13:53.606,85887,8884,8390,66190,98615
2025-05-29 19:13:53.618,85895,8908,8388,66189,98598
2025-05-29 19:13:53.626,85909,8899,8388,66192,98627
2025-05-29 19:13:53.651,85911,8900,8391,66200,98616
2025-05-29 19:13:53.653,85905,8914,8395,66201,98624
2025-05-29 19:13:53.658,85938,8906,8405,66211,98616
2025-05-29 19:13:53.666,85919,8936,8409,66202,98643
2025-05-29 19:13:53.679,85936,8934,8412,66216,98641
2025-05-29 19:13:53.686,85948,8937,8416,66207,98643
2025-05-29 19:13:53.698,85942,8955,8409,66219,98674
2025-05-29 19:13:53.722,85952,8952,8423,66222,98661
2025-05-29 19:13:53.723,85927,8949,8422,66214,98673
2025-05-29 19:13:53.726,85909,8942,8415,66219,98657
2025-05-29 19:13:53.738,85879,8937,8408,66212,98665
2025-05-29 19:13:53.745,85848,8911,8379,66206,98657
2025-05-29 19:13:53.757,85809,8887,8366,66206,98618
2025-05-29 19:13:53.766,85774,8859,8345,66209,98620
2025-05-29 19:13:53.792,85743,8831,8333,66196,98596
2025-05-29 19:13:53.793,85707,8803,8298,66186,98565
2025-05-29 19:13:53.798,85685,8778,8288,66185,98540
2025-05-29 19:13:53.806,85649,8761,8274,66167,98519
2025-05-29 19:13:53.817,85619,8735,8257,66156,98490
2025-05-29 19:13:53.826,85602,8720,8242,66148,98473
2025-05-29 19:13:53.838,85597,8702,8229,66147,98461
2025-05-29 19:13:53.863,85572,8689,8226,66140,98431
2025-05-29 19:13:53.865,85565,8682,8215,66134,98408
2025-05-29 19:13:53.866,85545,8670,8215,66128,98408
2025-05-29 19:13:53.878,85549,8675,8210,66123,98391
2025-05-29 19:13:53.886,85525,8658,8210,66132,98396
2025-05-29 19:13:53.898,85532,8661,8207,66126,98391
2025-05-29 19:13:53.910,85520,8651,8202,66115,98389
2025-05-29 19:13:53.934,85525,8650,8189,66115,98378
2025-05-29 19:13:53.936,85518,8638,8193,66096,98368
2025-05-29 19:13:53.938,85532,8642,8196,66099,98361
2025-05-29 19:13:53.949,85537,8649,8211,66106,98359
2025-05-29 19:13:53.957,85552,8653,8202,66105,98366
2025-05-29 19:13:53.970,85542,8657,8220,66111,98374
2025-05-29 19:13:53.977,85547,8660,8216,66120,98383
2025-05-29 19:13:54.003,85545,8656,8219,66125,98370
2025-05-29 19:13:54.005,85554,8662,8237,66123,98376
2025-05-29 19:13:54.009,85556,8656,8227,66115,98370
2025-05-29 19:13:54.018,85558,8660,8239,66104,98379
2025-05-29 19:13:54.029,85556,8652,8219,66138,98368
2025-05-29 19:13:54.037,85560,8652,8249,66096,98376
2025-05-29 19:13:54.050,85562,8646,8225,66116,98368
2025-05-29 19:13:54.072,85567,8650,8240,66104,98348
2025-05-29 19:13:54.073,85564,8641,8221,66123,98348
2025-05-29 19:13:54.078,85572,8640,8231,66115,98340
2025-05-29 19:13:54.090,85568,8633,8222,66131,98343
2025-05-29 19:13:54.098,85562,8637,8222,66116,98340
2025-05-29 19:13:54.110,85559,8636,8226,66127,98354
2025-05-29 19:13:54.118,85570,8629,8227,66134,98358
2025-05-29 19:13:54.148,85577,8635,8236,66130,98360
2025-05-29 19:13:54.150,85571,8635,8245,66134,98355
2025-05-29 19:13:54.152,85573,8643,8236,66145,98363
2025-05-29 19:13:54.157,85595,8639,8238,66126,98348
2025-05-29 19:13:54.170,85587,8641,8241,66131,98351
2025-05-29 19:13:54.178,85607,8649,8251,66128,98362
2025-05-29 19:13:54.190,85614,8650,8252,66135,98367
2025-05-29 19:13:54.224,85616,8655,8252,66123,98368
2025-05-29 19:13:54.226,85628,8658,8257,66128,98373
2025-05-29 19:13:54.228,85641,8665,8262,66138,98378
2025-05-29 19:13:54.230,85653,8665,8270,66139,98379
2025-05-29 19:13:54.238,85664,8670,8272,66155,98401
2025-05-29 19:13:54.250,85669,8671,8278,66134,98404
2025-05-29 19:13:54.258,85693,8685,8284,66153,98411
2025-05-29 19:13:54.270,85690,8686,8291,66159,98413
2025-05-29 19:13:54.294,85704,8695,8297,66157,98419
2025-05-29 19:13:54.295,85712,8698,8302,66158,98437
2025-05-29 19:13:54.298,85724,8707,8309,66163,98434
2025-05-29 19:13:54.310,85736,8711,8308,66191,98435
2025-05-29 19:13:54.317,85746,8715,8323,66164,98461
2025-05-29 19:13:54.330,85756,8727,8324,66181,98458
2025-05-29 19:13:54.337,85763,8731,8325,66179,98462
2025-05-29 19:13:54.365,85775,8732,8327,66191,98490
2025-05-29 19:13:54.367,85778,8741,8340,66195,98497
2025-05-29 19:13:54.369,85785,8750,8346,66196,98500
2025-05-29 19:13:54.378,85785,8743,8349,66203,98500
2025-05-29 19:13:54.390,85819,8751,8350,66199,98522
2025-05-29 19:13:54.402,85817,8759,8352,66189,98528
2025-05-29 19:13:54.410,85825,8762,8352,66204,98503
2025-05-29 19:13:54.435,85839,8765,8363,66202,98517
2025-05-29 19:13:54.436,85844,8769,8371,66203,98528
2025-05-29 19:13:54.441,85867,8779,8376,66196,98535
2025-05-29 19:13:54.450,85881,8785,8369,66219,98537
2025-05-29 19:13:54.462,85880,8787,8380,66212,98546
2025-05-29 19:13:54.470,85885,8800,8377,66229,98564
2025-05-29 19:13:54.482,85895,8802,8396,66213,98570
2025-05-29 19:13:54.512,85912,8812,8390,66239,98598
2025-05-29 19:13:54.514,85914,8812,8401,66220,98570
2025-05-29 19:13:54.516,85900,8813,8402,66225,98602
2025-05-29 19:13:54.523,85881,8811,8392,66214,98590
2025-05-29 19:13:54.530,85871,8794,8383,66204,98579
2025-05-29 19:13:54.542,85835,8773,8362,66201,98558
2025-05-29 19:13:54.551,85797,8747,8344,66168,98527
2025-05-29 19:13:54.586,85783,8720,8313,66170,98519
2025-05-29 19:13:54.588,85752,8696,8296,66148,98484
2025-05-29 19:13:54.589,85736,8672,8283,66139,98446
2025-05-29 19:13:54.590,85707,8642,8257,66127,98420
2025-05-29 19:13:54.601,85680,8622,8248,66117,98389
2025-05-29 19:13:54.610,85673,8610,8231,66125,98371
2025-05-29 19:13:54.622,85656,8590,8217,66103,98353
2025-05-29 19:13:54.630,85654,8568,8216,66111,98340
2025-05-29 19:13:54.657,85646,8561,8202,66115,98327
2025-05-29 19:13:54.660,85628,8559,8202,66104,98344
2025-05-29 19:13:54.662,85622,8548,8197,66130,98328
2025-05-29 19:13:54.671,85616,8547,8201,66107,98336
2025-05-29 19:13:54.682,85608,8553,8201,66119,98339
2025-05-29 19:13:54.690,85594,8553,8205,66095,98314
2025-05-29 19:13:54.701,85590,8546,8205,66125,98324
2025-05-29 19:13:54.736,85596,8555,8211,66104,98318
2025-05-29 19:13:54.738,85581,8539,8207,66124,98338
2025-05-29 19:13:54.741,85570,8549,8214,66110,98335
2025-05-29 19:13:54.744,85585,8553,8221,66115,98362
2025-05-29 19:13:54.750,85597,8561,8223,66125,98360
2025-05-29 19:13:54.763,85598,8567,8219,66136,98370
2025-05-29 19:13:54.774,85603,8570,8226,66128,98380
2025-05-29 19:13:54.782,85608,8562,8236,66131,98368
2025-05-29 19:13:54.812,85635,8571,8239,66131,98381
2025-05-29 19:13:54.814,85629,8573,8242,66125,98369
2025-05-29 19:13:54.816,85642,8568,8242,66122,98387
2025-05-29 19:13:54.822,85661,8583,8256,66132,98386
2025-05-29 19:13:54.835,85651,8573,8248,66132,98364
2025-05-29 19:13:54.843,85681,8578,8251,66135,98388
2025-05-29 19:13:54.854,85678,8579,8251,66129,98385
2025-05-29 19:13:54.884,85688,8579,8256,66124,98382
2025-05-29 19:13:54.887,85689,8575,8252,66131,98384
2025-05-29 19:13:54.889,85712,8577,8252,66127,98365
2025-05-29 19:13:54.894,85702,8573,8256,66133,98360
2025-05-29 19:13:54.902,85729,8573,8255,66120,98330
2025-05-29 19:13:54.914,85737,8568,8254,66123,98336
2025-05-29 19:13:54.921,85739,8582,8253,66127,98327
2025-05-29 19:13:54.957,85743,8586,8258,66119,98333
2025-05-29 19:13:54.958,85743,8593,8259,66128,98339
2025-05-29 19:13:54.960,85747,8596,8265,66129,98336
2025-05-29 19:13:54.962,85764,8602,8276,66117,98367
2025-05-29 19:13:54.973,85762,8617,8271,66123,98338
2025-05-29 19:13:54.982,85773,8612,8277,66126,98345
2025-05-29 19:13:54.994,85774,8630,8288,66126,98348
2025-05-29 19:13:55.002,85777,8633,8292,66136,98364
2025-05-29 19:13:55.025,85773,8638,8301,66147,98369
2025-05-29 19:13:55.027,85782,8642,8314,66138,98385
2025-05-29 19:13:55.034,85796,8638,8312,66144,98407
2025-05-29 19:13:55.042,85808,8658,8320,66142,98399
2025-05-29 19:13:55.054,85797,8656,8316,66139,98406
2025-05-29 19:13:55.062,85822,8677,8322,66137,98387
2025-05-29 19:13:55.074,85820,8677,8337,66145,98410
2025-05-29 19:13:55.099,85818,8683,8343,66149,98420
2025-05-29 19:13:55.101,85836,8696,8349,66154,98426
2025-05-29 19:13:55.102,85844,8696,8350,66159,98428
2025-05-29 19:13:55.115,85851,8704,8358,66161,98444
2025-05-29 19:13:55.117,85851,8704,8358,66161,98444
2025-05-29 19:13:55.122,85865,8724,8365,66158,98465
2025-05-29 19:13:55.134,85872,8735,8369,66154,98449
2025-05-29 19:13:55.142,85882,8731,8378,66159,98451
2025-05-29 19:13:55.168,85883,8742,8379,66179,98465
2025-05-29 19:13:55.170,85896,8749,8384,66169,98478
2025-05-29 19:13:55.174,85908,8749,8387,66176,98481
2025-05-29 19:13:55.182,85910,8757,8390,66168,98475
2025-05-29 19:13:55.193,85906,8766,8399,66170,98484
2025-05-29 19:13:55.202,85908,8759,8410,66168,98489
2025-05-29 19:13:55.213,85926,8776,8403,66181,98492
2025-05-29 19:13:55.237,85934,8784,8406,66186,98503
2025-05-29 19:13:55.239,85914,8787,8406,66181,98521
2025-05-29 19:13:55.246,85913,8797,8414,66188,98521
2025-05-29 19:13:55.253,85931,8805,8422,66176,98539
2025-05-29 19:13:55.266,85936,8808,8422,66191,98533
2025-05-29 19:13:55.273,85938,8812,8433,66195,98550
2025-05-29 19:13:55.286,85949,8814,8442,66187,98550
2025-05-29 19:13:55.308,85956,8824,8442,66190,98544
2025-05-29 19:13:55.310,85961,8828,8444,66195,98550
2025-05-29 19:13:55.313,85990,8836,8452,66186,98549
2025-05-29 19:13:55.326,85987,8838,8456,66198,98570
2025-05-29 19:13:55.334,85997,8852,8468,66187,98570
2025-05-29 19:13:55.346,86010,8853,8466,66193,98592
2025-05-29 19:13:55.354,86012,8864,8470,66197,98593
2025-05-29 19:13:55.381,86016,8875,8483,66194,98609
2025-05-29 19:13:55.383,86026,8881,8482,66208,98611
2025-05-29 19:13:55.386,86014,8889,8492,66202,98620
2025-05-29 19:13:55.394,86069,8883,8479,66195,98620
2025-05-29 19:13:55.405,85982,8877,8476,66188,98613
2025-05-29 19:13:55.413,85957,8863,8450,66186,98602
2025-05-29 19:13:55.426,85923,8841,8427,66168,98584
2025-05-29 19:13:55.455,85878,8821,8415,66152,98535
2025-05-29 19:13:55.457,85861,8798,8399,66159,98521
2025-05-29 19:13:55.458,85836,8779,8373,66175,98513
2025-05-29 19:13:55.467,85809,8756,8360,66142,98479
2025-05-29 19:13:55.474,85799,8728,8347,66144,98476
2025-05-29 19:13:55.486,85779,8721,8339,66135,98464
2025-05-29 19:13:55.494,85764,8704,8317,66121,98454
2025-05-29 19:13:55.525,85737,8696,8320,66095,98436
2025-05-29 19:13:55.526,85751,8689,8314,66123,98406
2025-05-29 19:13:55.528,85742,8668,8316,66102,98393
2025-05-29 19:13:55.534,85730,8670,8313,66096,98388
2025-05-29 19:13:55.546,85720,8673,8303,66107,98377
2025-05-29 19:13:55.553,85720,8677,8310,66105,98371
2025-05-29 19:13:55.566,85715,8667,8311,66101,98376
2025-05-29 19:13:55.605,85710,8670,8317,66091,98386
2025-05-29 19:13:55.608,85694,8671,8322,66097,98385
2025-05-29 19:13:55.611,85703,8682,8314,66084,98392
2025-05-29 19:13:55.614,85704,8684,8318,66085,98384
2025-05-29 19:13:55.617,85704,8689,8329,66077,98380
2025-05-29 19:13:55.627,85709,8699,8333,66085,98376
2025-05-29 19:13:55.634,85713,8703,8338,66080,98388
2025-05-29 19:13:55.647,85723,8705,8342,66079,98367
2025-05-29 19:13:55.690,85730,8703,8347,66074,98380
2025-05-29 19:13:55.693,85737,8707,8347,66072,98385
2025-05-29 19:13:55.696,85724,8695,8342,66079,98390
2025-05-29 19:13:55.698,85725,8699,8340,66089,98380
2025-05-29 19:13:55.701,85741,8681,8359,66070,98395
2025-05-29 19:13:55.706,85723,8697,8338,66069,98388
2025-05-29 19:13:55.719,85712,8690,8344,66069,98382
2025-05-29 19:13:55.727,85712,8678,8335,66069,98364
2025-05-29 19:13:55.738,85700,8690,8360,66067,98359
2025-05-29 19:13:55.771,85732,8679,8352,66068,98368
2025-05-29 19:13:55.774,85727,8697,8363,66054,98367
2025-05-29 19:13:55.776,85722,8700,8355,66065,98354
2025-05-29 19:13:55.778,85720,8701,8347,66052,98345
2025-05-29 19:13:55.786,85714,8712,8353,66046,98363
2025-05-29 19:13:55.799,85728,8711,8357,66049,98355
2025-05-29 19:13:55.808,85733,8714,8367,66052,98355
2025-05-29 19:13:55.818,85734,8726,8345,66053,98356
2025-05-29 19:13:55.849,85719,8722,8358,66054,98354
2025-05-29 19:13:55.851,85724,8738,8368,66051,98338
2025-05-29 19:13:55.853,85730,8740,8372,66051,98364
2025-05-29 19:13:55.858,85751,8723,8388,66056,98358
2025-05-29 19:13:55.867,85748,8743,8387,66064,98371
2025-05-29 19:13:55.878,85774,8747,8390,66057,98378
2025-05-29 19:13:55.886,85757,8755,8388,66060,98384
2025-05-29 19:13:55.926,85759,8768,8399,66067,98395
2025-05-29 19:13:55.928,85767,8779,8412,66067,98408
2025-05-29 19:13:55.931,85769,8783,8412,66066,98412
2025-05-29 19:13:55.933,85791,8779,8425,66067,98418
2025-05-29 19:13:55.939,85789,8800,8412,66060,98435
2025-05-29 19:13:55.947,85795,8802,8416,66070,98437
2025-05-29 19:13:55.958,85784,8817,8434,66082,98445
2025-05-29 19:13:55.967,85793,8824,8443,66086,98451
2025-05-29 19:13:56.005,85804,8813,8443,66089,98447
2025-05-29 19:13:56.008,85815,8823,8456,66088,98464
2025-05-29 19:13:56.010,85820,8836,8470,66071,98478
2025-05-29 19:13:56.013,85844,8838,8468,66090,98482
2025-05-29 19:13:56.018,85855,8847,8459,66090,98481
2025-05-29 19:13:56.027,85865,8856,8467,66088,98483
2025-05-29 19:13:56.038,85868,8864,8470,66095,98490
2025-05-29 19:13:56.047,85880,8872,8485,66104,98501
2025-05-29 19:13:56.084,85896,8883,8462,66098,98511
2025-05-29 19:13:56.087,85899,8870,8466,66102,98538
2025-05-29 19:13:56.090,85917,8872,8467,66102,98525
2025-05-29 19:13:56.092,85919,8888,8466,66091,98530
2025-05-29 19:13:56.099,85924,8891,8471,66108,98527
2025-05-29 19:13:56.110,85945,8907,8467,66110,98545
2025-05-29 19:13:56.118,85952,8922,8504,66114,98545
2025-05-29 19:13:56.131,85958,8906,8509,66121,98557
2025-05-29 19:13:56.165,85983,8914,8512,66114,98577
2025-05-29 19:13:56.167,85997,8919,8515,66133,98569
2025-05-29 19:13:56.169,85994,8931,8524,66119,98581
2025-05-29 19:13:56.172,86003,8933,8524,66119,98576
2025-05-29 19:13:56.178,86012,8952,8535,66128,98590
2025-05-29 19:13:56.190,86039,8953,8539,66144,98596
2025-05-29 19:13:56.198,86038,8973,8546,66158,98613
2025-05-29 19:13:56.210,86058,8974,8554,66165,98623
2025-05-29 19:13:56.238,86055,8986,8566,66158,98650
2025-05-29 19:13:56.240,86072,8993,8557,66163,98670
2025-05-29 19:13:56.242,86045,8990,8548,66168,98665
2025-05-29 19:13:56.250,86037,9003,8554,66159,98659
2025-05-29 19:13:56.257,86019,8981,8551,66171,98640
2025-05-29 19:13:56.270,85996,8960,8534,66151,98652
2025-05-29 19:13:56.278,85970,8940,8517,66153,98630
2025-05-29 19:13:56.312,85946,8923,8500,66160,98640
2025-05-29 19:13:56.314,85920,8902,8487,66149,98614
2025-05-29 19:13:56.316,85916,8903,8472,66155,98609
2025-05-29 19:13:56.318,85900,8854,8458,66151,98580
2025-05-29 19:13:56.330,85883,8848,8445,66138,98571
2025-05-29 19:13:56.338,85871,8824,8424,66149,98578
2025-05-29 19:13:56.350,85853,8821,8415,66135,98557
2025-05-29 19:13:56.359,85843,8808,8411,66133,98564
2025-05-29 19:13:56.383,85831,8805,8412,66126,98550
2025-05-29 19:13:56.385,85814,8800,8406,66136,98534
2025-05-29 19:13:56.390,85784,8781,8399,66114,98522
2025-05-29 19:13:56.397,85719,8771,8396,66083,98510
2025-05-29 19:13:56.409,85665,8753,8389,66048,98466
2025-05-29 19:13:56.418,85570,8722,8365,65990,98430
2025-05-29 19:13:56.430,85524,8696,8343,65940,98327
2025-05-29 19:13:56.455,85474,8656,8322,65904,98226
2025-05-29 19:13:56.457,85465,8625,8307,65839,98129
2025-05-29 19:13:56.459,85464,8600,8217,65797,98058
2025-05-29 19:13:56.470,85447,8574,8214,65709,97942
2025-05-29 19:13:56.483,85432,8529,8176,65620,97813
2025-05-29 19:13:56.491,85472,8501,8151,65580,97641
2025-05-29 19:13:56.502,85626,8477,8132,65546,97511
2025-05-29 19:13:56.527,85759,8458,8117,65539,97446
2025-05-29 19:13:56.529,85885,8466,8121,65527,97391
2025-05-29 19:13:56.531,86000,8459,8103,65515,97369
2025-05-29 19:13:56.542,86103,8467,8101,65530,97357
2025-05-29 19:13:56.550,86194,8473,8112,65559,97383
2025-05-29 19:13:56.562,86309,8488,8118,65551,97406
2025-05-29 19:13:56.570,86416,8500,8094,65541,97406
2025-05-29 19:13:56.599,86491,8500,8087,65535,97408
2025-05-29 19:13:56.601,86602,8503,8089,65535,97383
2025-05-29 19:13:56.603,86716,8489,8073,65502,97348
2025-05-29 19:13:56.610,86788,8490,8061,65471,97293
2025-05-29 19:13:56.622,86905,8500,8044,65452,97223
2025-05-29 19:13:56.630,86984,8516,8032,65444,97203
2025-05-29 19:13:56.643,87035,8522,8021,65416,97169
2025-05-29 19:13:56.673,87105,8531,8022,65419,97125
2025-05-29 19:13:56.675,87177,8550,8023,65421,97112
2025-05-29 19:13:56.676,87244,8582,8038,65423,97118
2025-05-29 19:13:56.682,87265,8611,8021,65458,97160
2025-05-29 19:13:56.690,87238,8641,8050,65476,97203
2025-05-29 19:13:56.703,87274,8670,8055,65516,97222
2025-05-29 19:13:56.710,87285,8687,8071,65537,97291
2025-05-29 19:13:56.749,87315,8721,8088,65563,97328
2025-05-29 19:13:56.751,87315,8721,8088,65563,97328
2025-05-29 19:13:56.753,87335,8774,8102,65611,97430
2025-05-29 19:13:56.754,87331,8791,8115,65640,97479
2025-05-29 19:13:56.756,87293,8823,8127,65648,97533
2025-05-29 19:13:56.762,87265,8850,8141,65645,97556
2025-05-29 19:13:56.770,87228,8866,8146,65653,97609
2025-05-29 19:13:56.783,87203,8893,8166,65677,97638
2025-05-29 19:13:56.790,87212,8912,8183,65694,97694
2025-05-29 19:13:56.823,87198,8931,8194,65698,97692
2025-05-29 19:13:56.825,87158,8950,8200,65700,97716
2025-05-29 19:13:56.827,87103,8964,8201,65686,97718
2025-05-29 19:13:56.830,87093,8972,8209,65651,97715
2025-05-29 19:13:56.843,87079,8982,8200,65652,97726
2025-05-29 19:13:56.850,87081,8995,8222,65677,97770
2025-05-29 19:13:56.862,87104,9014,8224,65695,97801
2025-05-29 19:13:56.870,87137,9034,8237,65730,97864
2025-05-29 19:13:56.894,87190,9068,8261,65785,97917
2025-05-29 19:13:56.896,87239,9089,8290,65831,97987
2025-05-29 19:13:56.902,87270,9124,8305,65875,98071
2025-05-29 19:13:56.910,87276,9137,8334,65890,98156
2025-05-29 19:13:56.923,87242,9153,8337,65882,98225
2025-05-29 19:13:56.934,87193,9165,8338,65851,98239
2025-05-29 19:13:56.943,87214,9186,8341,65852,98215
2025-05-29 19:13:56.973,87232,9195,8343,65887,98252
2025-05-29 19:13:56.975,87287,9220,8357,65915,98268
2025-05-29 19:13:56.978,87327,9229,8363,65933,98311
2025-05-29 19:13:56.982,87360,9238,8371,65953,98344
2025-05-29 19:13:56.994,87383,9247,8394,65970,98385
2025-05-29 19:13:57.002,87382,9273,8384,65968,98424
2025-05-29 19:13:57.014,87362,9283,8381,65967,98452
2025-05-29 19:13:57.022,87331,9286,8387,65935,98448
2025-05-29 19:13:57.052,87368,9297,8390,65963,98425
2025-05-29 19:13:57.055,87437,9298,8391,65973,98426
2025-05-29 19:13:57.058,87496,9305,8393,65975,98429
2025-05-29 19:13:57.061,87547,9321,8382,65985,98430
2025-05-29 19:13:57.075,87586,9339,8395,66000,98454
2025-05-29 19:13:57.083,87632,9357,8404,66008,98452
2025-05-29 19:13:57.095,87657,9365,8417,66015,98475
2025-05-29 19:13:57.141,87683,9372,8420,66009,98490
2025-05-29 19:13:57.145,87659,9392,8426,65976,98486
2025-05-29 19:13:57.147,87676,9412,8420,65949,98460
2025-05-29 19:13:57.150,87665,9422,8409,65926,98445
2025-05-29 19:13:57.153,87701,9425,8418,65922,98413
2025-05-29 19:13:57.157,87737,9443,8409,65922,98407
2025-05-29 19:13:57.162,87783,9459,8410,65924,98440
2025-05-29 19:13:57.175,87832,9479,8420,65947,98416
2025-05-29 19:13:57.183,87854,9503,8426,65942,98433
2025-05-29 19:13:57.226,87858,9523,8437,65968,98479
2025-05-29 19:13:57.228,87876,9560,8451,65983,98475
2025-05-29 19:13:57.230,87895,9580,8458,65996,98537
2025-05-29 19:13:57.233,87902,9594,8469,65998,98587
2025-05-29 19:13:57.235,87925,9619,8486,66048,98587
2025-05-29 19:13:57.243,87958,9636,8497,66059,98638
2025-05-29 19:13:57.254,87972,9646,8507,66096,98668
2025-05-29 19:13:57.263,87968,9654,8509,66108,98693
2025-05-29 19:13:57.301,87971,9662,8511,66109,98727
2025-05-29 19:13:57.303,87951,9649,8481,66099,98716
2025-05-29 19:13:57.305,87947,9633,8443,66114,98718
2025-05-29 19:13:57.307,87947,9622,8421,66108,98689
2025-05-29 19:13:57.315,87990,9605,8393,66106,98634
2025-05-29 19:13:57.326,88020,9576,8370,66133,98610
2025-05-29 19:13:57.334,88048,9564,8354,66126,98628
2025-05-29 19:13:57.342,88093,9548,8328,66161,98626
2025-05-29 19:13:57.373,88098,9547,8307,66178,98645
2025-05-29 19:13:57.375,88111,9527,8309,66192,98635
2025-05-29 19:13:57.377,88162,9514,8290,66216,98648
2025-05-29 19:13:57.386,88218,9513,8287,66217,98667
2025-05-29 19:13:57.394,88260,9511,8269,66240,98669
2025-05-29 19:13:57.407,88280,9525,8259,66249,98689
2025-05-29 19:13:57.414,88297,9527,8264,66255,98696
2025-05-29 19:13:57.444,88336,9534,8273,66267,98690
2025-05-29 19:13:57.446,88379,9539,8284,66283,98701
2025-05-29 19:13:57.448,88413,9566,8288,66293,98764
2025-05-29 19:13:57.454,88426,9571,8302,66305,98769
2025-05-29 19:13:57.466,88449,9590,8286,66324,98824
2025-05-29 19:13:57.474,88466,9594,8288,66349,98839
2025-05-29 19:13:57.486,88500,9621,8301,66352,98866
2025-05-29 19:13:57.517,88513,9628,8309,66382,98899
2025-05-29 19:13:57.519,88546,9654,8311,66399,98906
2025-05-29 19:13:57.520,88553,9657,8311,66394,98917
2025-05-29 19:13:57.526,88564,9679,8326,66383,98939
2025-05-29 19:13:57.534,88602,9705,8331,66394,98970
2025-05-29 19:13:57.546,88620,9718,8347,66402,98996
2025-05-29 19:13:57.555,88644,9746,8360,66402,99015
2025-05-29 19:13:57.565,88670,9762,8365,66407,99019
2025-05-29 19:13:57.593,88691,9769,8375,66417,99043
2025-05-29 19:13:57.595,88729,9796,8387,66420,99078
2025-05-29 19:13:57.596,88748,9806,8391,66421,99068
2025-05-29 19:13:57.607,88772,9815,8387,66442,99090
2025-05-29 19:13:57.614,88819,9824,8402,66451,99107
2025-05-29 19:13:57.627,88839,9836,8408,66446,99125
2025-05-29 19:13:57.635,88871,9854,8400,66441,99149
2025-05-29 19:13:57.665,88899,9864,8404,66447,99146
2025-05-29 19:13:57.667,88927,9887,8414,66481,99174
2025-05-29 19:13:57.668,88967,9916,8436,66485,99179
2025-05-29 19:13:57.674,89009,9925,8461,66506,99221
2025-05-29 19:13:57.686,89038,9944,8473,66528,99257
2025-05-29 19:13:57.694,89085,9975,8494,66520,99306
2025-05-29 19:13:57.706,89099,9987,8495,66543,99361
2025-05-29 19:13:57.714,89096,10002,8500,66552,99384
2025-05-29 19:13:57.740,89098,10028,8512,66555,99386
2025-05-29 19:13:57.742,89122,10021,8528,66545,99387
2025-05-29 19:13:57.746,89128,10048,8536,66545,99397
2025-05-29 19:13:57.759,89146,10053,8534,66549,99401
2025-05-29 19:13:57.766,89152,10073,8554,66558,99421
2025-05-29 19:13:57.778,89156,10102,8554,66551,99440
2025-05-29 19:13:57.786,89183,10112,8580,66551,99461
2025-05-29 19:13:57.811,89190,10124,8585,66543,99481
2025-05-29 19:13:57.813,89212,10146,8593,66532,99492
2025-05-29 19:13:57.818,89210,10163,8598,66537,99509
2025-05-29 19:13:57.826,89210,10185,8606,66535,99522
2025-05-29 19:13:57.839,89236,10205,8615,66537,99527
2025-05-29 19:13:57.847,89253,10219,8635,66541,99525
2025-05-29 19:13:57.858,89254,10240,8643,66570,99555
2025-05-29 19:13:57.882,89263,10265,8650,66585,99606
2025-05-29 19:13:57.883,89246,10279,8666,66609,99679
2025-05-29 19:13:57.886,89204,10307,8689,66629,99747
2025-05-29 19:13:57.897,89196,10330,8701,66662,99859
2025-05-29 19:13:57.906,89227,10372,8727,66714,99965
2025-05-29 19:13:57.918,89229,10404,8763,66719,100082
2025-05-29 19:13:57.925,89192,10439,8781,66712,100198
2025-05-29 19:13:57.952,89122,10458,8806,66702,100296
2025-05-29 19:13:57.954,89006,10481,8834,66648,100369
2025-05-29 19:13:57.957,88864,10504,8850,66596,100426
2025-05-29 19:13:57.966,88715,10536,8854,66543,100481
2025-05-29 19:13:57.979,88530,10541,8871,66499,100537
2025-05-29 19:13:57.986,88414,10555,8885,66422,100571
2025-05-29 19:13:57.998,88290,10540,8884,66339,100576
2025-05-29 19:13:58.025,88234,10531,8906,66281,100547
2025-05-29 19:13:58.027,88205,10529,8911,66221,100552
2025-05-29 19:13:58.028,88154,10533,8909,66183,100542
2025-05-29 19:13:58.038,88083,10528,8903,66153,100547
2025-05-29 19:13:58.046,88027,10532,8915,66117,100562
2025-05-29 19:13:58.059,88014,10518,8915,66087,100533
2025-05-29 19:13:58.066,88004,10491,8925,66080,100515
2025-05-29 19:13:58.101,88044,10482,8914,66073,100488
2025-05-29 19:13:58.103,88084,10479,8911,66099,100454
2025-05-29 19:13:58.105,88140,10473,8922,66150,100449
2025-05-29 19:13:58.106,88185,10472,8927,66185,100432
2025-05-29 19:13:58.118,88222,10462,8932,66223,100440
2025-05-29 19:13:58.130,88262,10458,8945,66228,100441
2025-05-29 19:13:58.139,88291,10450,8931,66252,100434
2025-05-29 19:13:58.150,88334,10461,8942,66273,100427
2025-05-29 19:13:58.181,88367,10451,8956,66290,100407
2025-05-29 19:13:58.183,88388,10450,8962,66307,100407
2025-05-29 19:13:58.186,88421,10450,8967,66312,100413
2025-05-29 19:13:58.190,88439,10451,8959,66340,100407
2025-05-29 19:13:58.199,88475,10458,8971,66358,100390
2025-05-29 19:13:58.210,88523,10448,8983,66384,100404
2025-05-29 19:13:58.219,88560,10455,8981,66386,100393
2025-05-29 19:13:58.256,88591,10451,8997,66413,100394
2025-05-29 19:13:58.258,88625,10456,9013,66443,100392
2025-05-29 19:13:58.260,88652,10461,8998,66455,100415
2025-05-29 19:13:58.262,88700,10459,9041,66485,100431
2025-05-29 19:13:58.271,88716,10466,9034,66481,100446
2025-05-29 19:13:58.278,88744,10457,9032,66484,100445
2025-05-29 19:13:58.290,88788,10464,9037,66500,100430
2025-05-29 19:13:58.297,88831,10464,9055,66515,100417
2025-05-29 19:13:58.327,88876,10480,9063,66542,100423
2025-05-29 19:13:58.329,88883,10468,9070,66535,100426
2025-05-29 19:13:58.330,88909,10472,9066,66567,100445
2025-05-29 19:13:58.334,88909,10472,9066,66567,100445
2025-05-29 19:13:58.339,88883,10458,9062,66570,100444
2025-05-29 19:13:58.350,88897,10440,9047,66581,100445
2025-05-29 19:13:58.358,88878,10414,9031,66577,100436
2025-05-29 19:13:58.369,88856,10384,9018,66575,100422
2025-05-29 19:13:58.401,88825,10370,8995,66571,100370
2025-05-29 19:13:58.403,88819,10328,8989,66558,100333
2025-05-29 19:13:58.405,88834,10297,8972,66574,100295
2025-05-29 19:13:58.410,88841,10281,8955,66580,100305
2025-05-29 19:13:58.418,88838,10263,8952,66585,100302
2025-05-29 19:13:58.430,88820,10235,8934,66581,100299
2025-05-29 19:13:58.438,88828,10234,8937,66600,100290
2025-05-29 19:13:58.450,88839,10207,8932,66606,100277
2025-05-29 19:13:58.477,88842,10194,8935,66613,100270
2025-05-29 19:13:58.479,88840,10195,8925,66617,100272
2025-05-29 19:13:58.480,88834,10183,8929,66624,100271
2025-05-29 19:13:58.491,88839,10191,8936,66607,100273
2025-05-29 19:13:58.498,88846,10167,8930,66613,100249
2025-05-29 19:13:58.511,88855,10158,8942,66615,100252
2025-05-29 19:13:58.518,88865,10168,8934,66611,100217
2025-05-29 19:13:58.548,88866,10165,8937,66613,100249
2025-05-29 19:13:58.550,88880,10169,8944,66625,100240
2025-05-29 19:13:58.551,88892,10159,8956,66624,100236
2025-05-29 19:13:58.562,88896,10157,8960,66630,100246
2025-05-29 19:13:58.570,88888,10158,8969,66631,100252
2025-05-29 19:13:58.578,88907,10163,8970,66614,100238
2025-05-29 19:13:58.591,88890,10163,8967,66618,100213
2025-05-29 19:13:58.619,88917,10157,8966,66605,100240
2025-05-29 19:13:58.621,88935,10155,8966,66604,100218
2025-05-29 19:13:58.623,88950,10157,8959,66617,100216
2025-05-29 19:13:58.630,88958,10155,8960,66621,100207
2025-05-29 19:13:58.642,88969,10157,8964,66633,100212
2025-05-29 19:13:58.650,88979,10156,8971,66634,100210
2025-05-29 19:13:58.663,88984,10153,8965,66637,100245
2025-05-29 19:13:58.691,88972,10147,8971,66639,100223
2025-05-29 19:13:58.693,88955,10146,8970,66641,100219
2025-05-29 19:13:58.695,88966,10143,8977,66630,100210
2025-05-29 19:13:58.702,88984,10141,8975,66631,100229
2025-05-29 19:13:58.711,89003,10141,8975,66631,100182
2025-05-29 19:13:58.722,89011,10135,8975,66639,100183
2025-05-29 19:13:58.730,89034,10129,8962,66640,100183
2025-05-29 19:13:58.763,89046,10132,8981,66645,100175
2025-05-29 19:13:58.765,89039,10142,9000,66649,100192
2025-05-29 19:13:58.766,89046,10145,8985,66627,100195
2025-05-29 19:13:58.770,89037,10146,8987,66651,100211
2025-05-29 19:13:58.782,89045,10149,8988,66658,100205
2025-05-29 19:13:58.790,89052,10146,8994,66660,100216
2025-05-29 19:13:58.802,89080,10157,9007,66663,100194
2025-05-29 19:13:58.810,89079,10166,9007,66661,100225
2025-05-29 19:13:58.835,89083,10165,9012,66675,100216
2025-05-29 19:13:58.837,89099,10170,9022,66681,100239
2025-05-29 19:13:58.842,89099,10180,9022,66683,100246
2025-05-29 19:13:58.850,89101,10184,9026,66685,100243
2025-05-29 19:13:58.862,89117,10190,9032,66661,100262
2025-05-29 19:13:58.871,89125,10198,9036,66667,100253
2025-05-29 19:13:58.882,89127,10199,9044,66660,100245
2025-05-29 19:13:58.907,89155,10198,9041,66680,100235
2025-05-29 19:13:58.909,89164,10212,9057,66692,100249
2025-05-29 19:13:58.911,89182,10217,9058,66686,100241
2025-05-29 19:13:58.922,89186,10231,9058,66683,100281
2025-05-29 19:13:58.931,89191,10245,9073,66713,100282
2025-05-29 19:13:58.942,89200,10253,9076,66704,100307
2025-05-29 19:13:58.950,89220,10252,9085,66723,100301
2025-05-29 19:13:58.981,89236,10264,9090,66723,100299
2025-05-29 19:13:58.983,89215,10270,9096,66717,100311
2025-05-29 19:13:58.985,89223,10259,9094,66711,100301
2025-05-29 19:13:58.990,89229,10267,9107,66707,100291
2025-05-29 19:13:59.002,89243,10257,9120,66702,100266
2025-05-29 19:13:59.011,89217,10273,9121,66696,100267
2025-05-29 19:13:59.023,89212,10263,9120,66691,100262
2025-05-29 19:13:59.058,89223,10274,9115,66681,100255
2025-05-29 19:13:59.061,89206,10262,9128,66683,100234
2025-05-29 19:13:59.063,89228,10261,9130,66683,100231
2025-05-29 19:13:59.065,89215,10259,9135,66703,100220
2025-05-29 19:13:59.075,89225,10250,9130,66687,100223
2025-05-29 19:13:59.083,89235,10257,9141,66665,100224
2025-05-29 19:13:59.094,89212,10255,9146,66656,100211
2025-05-29 19:13:59.102,89177,10270,9140,66658,100182
2025-05-29 19:13:59.132,89151,10259,9147,66640,100174
2025-05-29 19:13:59.133,89106,10273,9140,66642,100179
2025-05-29 19:13:59.135,89117,10268,9148,66634,100182
2025-05-29 19:13:59.142,89084,10281,9159,66652,100186
2025-05-29 19:13:59.155,89084,10284,9167,66639,100206
2025-05-29 19:13:59.163,89056,10302,9172,66633,100226
2025-05-29 19:13:59.175,89057,10306,9176,66621,100229
2025-05-29 19:13:59.202,89025,10316,9179,66602,100235
2025-05-29 19:13:59.204,89005,10325,9188,66603,100225
2025-05-29 19:13:59.205,88991,10329,9198,66600,100259
2025-05-29 19:13:59.214,88975,10348,9198,66590,100262
2025-05-29 19:13:59.222,88953,10351,9205,66596,100266
2025-05-29 19:13:59.234,88928,10362,9211,66600,100301
2025-05-29 19:13:59.243,88922,10373,9209,66595,100296
2025-05-29 19:13:59.274,88922,10387,9208,66597,100318
2025-05-29 19:13:59.276,88931,10394,9216,66605,100356
2025-05-29 19:13:59.278,88912,10399,9210,66616,100364
2025-05-29 19:13:59.282,88890,10405,9218,66633,100399
2025-05-29 19:13:59.294,88860,10398,9213,66641,100417
2025-05-29 19:13:59.302,88800,10385,9196,66644,100457
2025-05-29 19:13:59.315,88739,10358,9184,66649,100466
2025-05-29 19:13:59.322,88706,10350,9179,66651,100476
2025-05-29 19:13:59.349,88628,10332,9156,66660,100500
2025-05-29 19:13:59.352,88589,10309,9147,66672,100546
2025-05-29 19:13:59.354,88525,10306,9145,66711,100578
2025-05-29 19:13:59.362,88507,10288,9134,66773,100638
2025-05-29 19:13:59.375,88442,10292,9142,66811,100725
2025-05-29 19:13:59.382,88418,10283,9143,66859,100801
2025-05-29 19:13:59.395,88367,10274,9165,66904,100894
2025-05-29 19:13:59.425,88250,10272,9167,66940,101008
2025-05-29 19:13:59.427,88099,10261,9163,66972,101024
2025-05-29 19:13:59.429,87962,10253,9166,66985,101065
2025-05-29 19:13:59.435,87867,10241,9155,66994,101105
2025-05-29 19:13:59.446,87794,10234,9168,66997,101132
2025-05-29 19:13:59.455,87750,10221,9152,66986,101096
2025-05-29 19:13:59.466,87753,10206,9144,67021,101070
2025-05-29 19:13:59.474,87784,10192,9156,67055,101069
2025-05-29 19:13:59.499,87799,10172,9146,67085,101109
2025-05-29 19:13:59.501,87784,10166,9149,67052,101075
2025-05-29 19:13:59.506,87761,10125,9140,67012,101035
2025-05-29 19:13:59.514,87772,10098,9133,66997,100965
2025-05-29 19:13:59.526,87760,10087,9123,66988,100896
2025-05-29 19:13:59.534,87724,10045,9111,66982,100818
2025-05-29 19:13:59.547,87698,10025,9103,66968,100790
2025-05-29 19:13:59.573,87658,9991,9075,66955,100745
2025-05-29 19:13:59.574,87635,9972,9074,66935,100692
2025-05-29 19:13:59.576,87631,9926,9059,66933,100619
2025-05-29 19:13:59.586,87600,9897,9046,66917,100559
2025-05-29 19:13:59.594,87542,9884,9034,66933,100522
2025-05-29 19:13:59.607,87506,9858,9032,66914,100499
2025-05-29 19:13:59.614,87455,9829,9007,66909,100470
2025-05-29 19:13:59.643,87395,9803,8999,66883,100430
2025-05-29 19:13:59.644,87302,9765,8968,66824,100359
2025-05-29 19:13:59.646,87248,9752,8935,66797,100274
2025-05-29 19:13:59.655,87183,9709,8925,66764,100189
2025-05-29 19:13:59.666,87174,9693,8902,66777,100143
2025-05-29 19:13:59.674,87130,9687,8896,66798,100142
2025-05-29 19:13:59.686,87097,9672,8867,66814,100160
2025-05-29 19:13:59.714,87083,9642,8863,66818,100157
2025-05-29 19:13:59.716,87071,9635,8837,66838,100139
2025-05-29 19:13:59.718,87070,9614,8836,66834,100152
2025-05-29 19:13:59.726,87041,9604,8819,66790,100135
2025-05-29 19:13:59.734,87019,9585,8803,66730,100055
2025-05-29 19:13:59.747,86980,9549,8789,66678,99953
2025-05-29 19:13:59.754,86963,9523,8759,66635,99873
2025-05-29 19:13:59.787,86948,9512,8743,66583,99790
2025-05-29 19:13:59.789,86937,9488,8724,66544,99713
2025-05-29 19:13:59.791,86937,9475,8691,66495,99621
2025-05-29 19:13:59.794,86959,9456,8683,66462,99562
2025-05-29 19:13:59.806,86990,9460,8662,66440,99454
2025-05-29 19:13:59.814,87059,9452,8671,66395,99437
2025-05-29 19:13:59.827,87103,9465,8644,66389,99372
2025-05-29 19:13:59.834,87125,9460,8644,66351,99306
2025-05-29 19:13:59.858,87112,9454,8617,66306,99228
2025-05-29 19:13:59.859,87132,9451,8586,66249,99136
2025-05-29 19:13:59.867,87146,9453,8579,66224,99085
2025-05-29 19:13:59.874,87140,9450,8541,66172,99030
2025-05-29 19:13:59.886,87115,9456,8517,66136,98979
2025-05-29 19:13:59.898,87103,9453,8496,66094,98924
2025-05-29 19:13:59.906,87075,9448,8470,66058,98855
2025-05-29 19:13:59.931,87050,9450,8453,65988,98781
2025-05-29 19:13:59.933,87032,9435,8431,65949,98680
2025-05-29 19:13:59.939,87036,9440,8407,65902,98613
2025-05-29 19:13:59.942,87036,9440,8407,65902,98613
2025-05-29 19:13:59.946,87081,9446,8367,65836,98516
2025-05-29 19:13:59.959,87106,9455,8356,65827,98474
2025-05-29 19:13:59.967,87132,9460,8332,65797,98451
2025-05-29 19:13:59.978,87159,9466,8329,65777,98400
2025-05-29 19:14:00.003,87184,9483,8310,65749,98385
2025-05-29 19:14:00.005,87233,9495,8302,65756,98348
2025-05-29 19:14:00.007,87301,9508,8284,65732,98338
2025-05-29 19:14:00.018,87362,9528,8284,65733,98327
2025-05-29 19:14:00.026,87451,9551,8277,65734,98299
2025-05-29 19:14:00.039,87553,9586,8294,65771,98347
2025-05-29 19:14:00.045,87618,9628,8305,65798,98404
2025-05-29 19:14:00.073,87730,9676,8330,65840,98473
2025-05-29 19:14:00.075,87830,9715,8358,65896,98561
2025-05-29 19:14:00.078,87901,9739,8359,65900,98635
2025-05-29 19:14:00.086,87935,9769,8381,65893,98643
2025-05-29 19:14:00.099,88000,9812,8400,65922,98680
2025-05-29 19:14:00.106,88146,9844,8434,65987,98719
2025-05-29 19:14:00.119,88279,9897,8476,66058,98794
2025-05-29 19:14:00.145,88370,9937,8513,66122,98878
2025-05-29 19:14:00.147,88484,9997,8567,66218,98989
2025-05-29 19:14:00.148,88543,10044,8615,66281,99149
2025-05-29 19:14:00.158,88574,10086,8641,66331,99280
2025-05-29 19:14:00.166,88590,10124,8676,66381,99363
2025-05-29 19:14:00.178,88647,10159,8689,66447,99462
2025-05-29 19:14:00.187,88715,10198,8734,66507,99545
2025-05-29 19:14:00.217,88803,10236,8773,66585,99672
2025-05-29 19:14:00.219,88930,10280,8829,66689,99802
2025-05-29 19:14:00.221,89049,10318,8884,66767,99925
2025-05-29 19:14:00.227,89087,10372,8915,66852,100054
2025-05-29 19:14:00.238,89079,10398,8945,66905,100202
2025-05-29 19:14:00.250,88996,10407,8955,66951,100311
2025-05-29 19:14:00.259,88880,10394,8945,66965,100393
2025-05-29 19:14:00.294,88795,10398,8943,67009,100423
2025-05-29 19:14:00.297,88724,10371,8934,67045,100444
2025-05-29 19:14:00.299,88654,10349,8930,67120,100491
2025-05-29 19:14:00.301,88574,10339,8905,67162,100559
2025-05-29 19:14:00.311,88447,10319,8913,67204,100660
2025-05-29 19:14:00.318,88318,10299,8899,67244,100720
2025-05-29 19:14:00.332,88175,10285,8893,67275,100791
2025-05-29 19:14:00.338,88046,10266,8888,67303,100841
2025-05-29 19:14:00.367,87924,10243,8880,67326,100898
2025-05-29 19:14:00.369,87822,10223,8865,67358,100956
2025-05-29 19:14:00.371,87727,10200,8857,67365,101007
2025-05-29 19:14:00.378,87654,10181,8853,67379,101046
2025-05-29 19:14:00.391,87564,10158,8857,67386,101072
2025-05-29 19:14:00.399,87494,10152,8847,67365,101097
2025-05-29 19:14:00.410,87403,10127,8847,67361,101116
2025-05-29 19:14:00.441,87336,10107,8850,67367,101127
2025-05-29 19:14:00.442,87268,10084,8836,67333,101123
2025-05-29 19:14:00.444,87214,10058,8840,67330,101128
2025-05-29 19:14:00.450,87170,10048,8832,67328,101128
2025-05-29 19:14:00.459,87121,10028,8837,67292,101104
2025-05-29 19:14:00.471,87081,10016,8827,67299,101094
2025-05-29 19:14:00.477,87040,9989,8829,67266,101079
2025-05-29 19:14:00.514,87021,9974,8818,67262,101059
2025-05-29 19:14:00.515,86971,9960,8824,67235,101051
2025-05-29 19:14:00.517,86937,9942,8816,67227,101044
2025-05-29 19:14:00.519,86909,9918,8808,67208,101012
2025-05-29 19:14:00.530,86875,9895,8800,67190,101022
2025-05-29 19:14:00.538,86841,9875,8800,67174,100994
2025-05-29 19:14:00.550,86819,9861,8792,67175,100983
2025-05-29 19:14:00.558,86793,9841,8791,67145,100940
2025-05-29 19:14:00.583,86756,9822,8784,67122,100951
2025-05-29 19:14:00.585,86717,9798,8777,67122,100921
2025-05-29 19:14:00.590,86694,9783,8765,67090,100906
2025-05-29 19:14:00.599,86671,9756,8760,67083,100869
2025-05-29 19:14:00.611,86643,9740,8752,67081,100855
2025-05-29 19:14:00.618,86623,9721,8747,67073,100836
2025-05-29 19:14:00.630,86606,9703,8742,67062,100819
2025-05-29 19:14:00.657,86593,9689,8735,67057,100788
2025-05-29 19:14:00.659,86574,9662,8725,67044,100766
2025-05-29 19:14:00.662,86554,9650,8719,67042,100753
2025-05-29 19:14:00.671,86546,9639,8725,67028,100734
2025-05-29 19:14:00.683,86532,9627,8721,67029,100733
2025-05-29 19:14:00.691,86521,9620,8723,66998,100718
2025-05-29 19:14:00.703,86500,9602,8715,67000,100698
2025-05-29 19:14:00.731,86487,9595,8711,66978,100700
2025-05-29 19:14:00.733,86471,9590,8711,66976,100680
2025-05-29 19:14:00.735,86457,9582,8713,66969,100657
2025-05-29 19:14:00.742,86460,9571,8718,66967,100658
2025-05-29 19:14:00.750,86452,9570,8716,66952,100620
2025-05-29 19:14:00.762,86456,9561,8721,66960,100632
2025-05-29 19:14:00.771,86437,9557,8721,66937,100642
2025-05-29 19:14:00.803,86421,9553,8725,66931,100630
2025-05-29 19:14:00.805,86424,9553,8729,66932,100596
2025-05-29 19:14:00.806,86407,9552,8732,66919,100604
2025-05-29 19:14:00.810,86404,9538,8733,66904,100573
2025-05-29 19:14:00.822,86401,9529,8735,66900,100594
2025-05-29 19:14:00.831,86396,9520,8734,66891,100556
2025-05-29 19:14:00.842,86389,9515,8741,66880,100566
2025-05-29 19:14:00.850,86398,9513,8737,66875,100535
2025-05-29 19:14:00.877,86391,9511,8736,66867,100528
2025-05-29 19:14:00.879,86389,9507,8741,66861,100517
2025-05-29 19:14:00.883,86376,9501,8740,66845,100501
2025-05-29 19:14:00.891,86373,9494,8739,66847,100523
2025-05-29 19:14:00.902,86381,9492,8746,66851,100480
2025-05-29 19:14:00.911,86373,9494,8752,66828,100473
2025-05-29 19:14:00.922,86378,9486,8746,66829,100456
2025-05-29 19:14:00.951,86377,9480,8749,66827,100444
2025-05-29 19:14:00.953,86383,9479,8751,66820,100463
2025-05-29 19:14:00.955,86368,9487,8758,66825,100452
2025-05-29 19:14:00.962,86375,9487,8765,66807,100450
2025-05-29 19:14:00.971,86365,9482,8768,66800,100449
2025-05-29 19:14:00.983,86359,9472,8777,66796,100444
2025-05-29 19:14:00.990,86352,9475,8777,66801,100445
2025-05-29 19:14:01.023,86361,9467,8767,66784,100445
2025-05-29 19:14:01.025,86355,9468,8773,66778,100446
2025-05-29 19:14:01.027,86348,9468,8780,66773,100420
2025-05-29 19:14:01.035,86348,9467,8777,66767,100416
2025-05-29 19:14:01.042,86350,9465,8777,66754,100398
2025-05-29 19:14:01.054,86346,9464,8790,66760,100418
2025-05-29 19:14:01.062,86353,9454,8788,66742,100395
2025-05-29 19:14:01.097,86340,9462,8799,66745,100387
2025-05-29 19:14:01.099,86368,9464,8795,66737,100384
2025-05-29 19:14:01.101,86352,9463,8802,66722,100376
2025-05-29 19:14:01.102,86354,9454,8801,66710,100376
2025-05-29 19:14:01.113,86350,9454,8800,66704,100334
2025-05-29 19:14:01.122,86331,9456,8802,66684,100353
2025-05-29 19:14:01.134,86355,9460,8803,66682,100325
2025-05-29 19:14:01.142,86342,9447,8802,66665,100311
2025-05-29 19:14:01.171,86354,9447,8808,66654,100308
2025-05-29 19:14:01.173,86332,9437,8809,66646,100292
2025-05-29 19:14:01.175,86322,9440,8796,66630,100265
2025-05-29 19:14:01.183,86275,9408,8780,66621,100241
2025-05-29 19:14:01.195,86252,9385,8763,66595,100217
2025-05-29 19:14:01.203,86200,9357,8743,66580,100150
2025-05-29 19:14:01.215,86162,9321,8716,66560,100139
2025-05-29 19:14:01.245,86132,9287,8696,66550,100089
2025-05-29 19:14:01.246,86070,9265,8684,66536,100075
2025-05-29 19:14:01.248,86045,9237,8661,66519,100039
2025-05-29 19:14:01.255,85992,9203,8640,66503,100004
2025-05-29 19:14:01.262,85988,9172,8622,66501,99956
2025-05-29 19:14:01.274,85974,9159,8604,66471,99930
2025-05-29 19:14:01.283,85932,9136,8606,66477,99900
2025-05-29 19:14:01.318,85937,9122,8591,66461,99888
2025-05-29 19:14:01.320,85911,9103,8581,66460,99857
2025-05-29 19:14:01.322,85904,9085,8582,66452,99849
2025-05-29 19:14:01.324,85902,9067,8571,66443,99834
2025-05-29 19:14:01.335,85874,9061,8576,66437,99814
2025-05-29 19:14:01.347,85878,9057,8574,66429,99805
2025-05-29 19:14:01.349,85878,9057,8574,66429,99805
2025-05-29 19:14:01.354,85843,9054,8581,66424,99789
2025-05-29 19:14:01.366,85839,9051,8578,66410,99785
2025-05-29 19:14:01.394,85845,9049,8581,66422,99780
2025-05-29 19:14:01.396,85851,9027,8584,66412,99771
2025-05-29 19:14:01.398,85844,9040,8590,66404,99758
2025-05-29 19:14:01.407,85865,9027,8585,66397,99761
2025-05-29 19:14:01.414,85863,9041,8591,66409,99763
2025-05-29 19:14:01.426,85855,9037,8598,66397,99761
2025-05-29 19:14:01.435,85883,9021,8596,66404,99752
2025-05-29 19:14:01.469,85878,9021,8602,66395,99756
2025-05-29 19:14:01.471,85881,9022,8593,66391,99749
2025-05-29 19:14:01.472,85863,9014,8587,66389,99727
2025-05-29 19:14:01.474,85870,9018,8592,66385,99743
2025-05-29 19:14:01.487,85874,9009,8591,66378,99700
2025-05-29 19:14:01.495,85874,8990,8593,66360,99696
2025-05-29 19:14:01.506,85884,8992,8586,66351,99688
2025-05-29 19:14:01.514,85883,8972,8577,66333,99660
2025-05-29 19:14:01.540,85879,8967,8577,66327,99655
2025-05-29 19:14:01.542,85888,8968,8576,66321,99652
2025-05-29 19:14:01.547,85878,8959,8567,66300,99611
2025-05-29 19:14:01.555,85876,8956,8568,66310,99610
2025-05-29 19:14:01.567,85875,8941,8564,66302,99587
2025-05-29 19:14:01.575,85878,8938,8569,66294,99581
2025-05-29 19:14:01.586,85878,8924,8564,66306,99576
2025-05-29 19:14:01.623,85857,8903,8571,66304,99581
2025-05-29 19:14:01.626,85864,8921,8572,66296,99583
2025-05-29 19:14:01.629,85853,8932,8575,66300,99568
2025-05-29 19:14:01.632,85882,8923,8574,66307,99576
2025-05-29 19:14:01.636,85863,8905,8588,66310,99569
2025-05-29 19:14:01.647,85820,8925,8583,66298,99566
2025-05-29 19:14:01.655,85826,8937,8587,66297,99579
2025-05-29 19:14:01.667,85834,8945,8586,66293,99577
2025-05-29 19:14:01.713,85837,8938,8580,66292,99573
2025-05-29 19:14:01.716,85819,8933,8591,66291,99574
2025-05-29 19:14:01.718,85822,8934,8599,66292,99550
2025-05-29 19:14:01.722,85827,8942,8604,66277,99577
2025-05-29 19:14:01.724,85834,8933,8602,66270,99564
2025-05-29 19:14:01.727,85851,8939,8612,66279,99545
2025-05-29 19:14:01.734,85868,8940,8615,66269,99555
2025-05-29 19:14:01.747,85874,8946,8608,66274,99553
2025-05-29 19:14:01.755,85877,8947,8609,66270,99562
2025-05-29 19:14:01.796,85897,8953,8611,66283,99553
2025-05-29 19:14:01.799,85901,8942,8613,66277,99562
2025-05-29 19:14:01.801,85904,8946,8630,66284,99569
2025-05-29 19:14:01.804,85917,8959,8619,66273,99573
2025-05-29 19:14:01.807,85902,8956,8627,66268,99562
2025-05-29 19:14:01.815,85921,8964,8629,66292,99575
2025-05-29 19:14:01.827,85941,8954,8642,66281,99575
2025-05-29 19:14:01.835,85926,8959,8649,66284,99596
2025-05-29 19:14:01.883,85928,8973,8642,66281,99580
2025-05-29 19:14:01.885,85941,8973,8641,66290,99592
2025-05-29 19:14:01.888,85912,8982,8647,66285,99579
2025-05-29 19:14:01.890,85933,8981,8657,66286,99586
2025-05-29 19:14:01.893,85924,8975,8664,66289,99580
2025-05-29 19:14:01.899,85949,8976,8668,66295,99574
2025-05-29 19:14:01.906,85948,8976,8668,66292,99586
2025-05-29 19:14:01.919,85943,8976,8674,66291,99595
2025-05-29 19:14:01.927,85953,8985,8677,66279,99583
2025-05-29 19:14:01.957,85960,8988,8691,66280,99576
2025-05-29 19:14:01.959,85951,9011,8676,66293,99597
2025-05-29 19:14:01.961,85957,9020,8649,66300,99607
2025-05-29 19:14:01.967,85957,9016,8660,66295,99611
2025-05-29 19:14:01.979,85946,8991,8654,66294,99604
2025-05-29 19:14:01.987,85925,8991,8677,66284,99597
2025-05-29 19:14:01.998,85920,8984,8646,66283,99562
2025-05-29 19:14:02.031,85896,8958,8624,66283,99541
2025-05-29 19:14:02.033,85896,8899,8648,66284,99545
2025-05-29 19:14:02.035,85869,8880,8624,66268,99520
2025-05-29 19:14:02.038,85854,8879,8614,66269,99492
2025-05-29 19:14:02.046,85834,8860,8588,66267,99480
2025-05-29 19:14:02.059,85814,8848,8569,66271,99462
2025-05-29 19:14:02.067,85791,8830,8555,66264,99438
2025-05-29 19:14:02.078,85762,8815,8535,66266,99438
2025-05-29 19:14:02.108,85752,8801,8532,66257,99437
2025-05-29 19:14:02.110,85737,8790,8522,66253,99416
2025-05-29 19:14:02.112,85712,8788,8517,66257,99412
2025-05-29 19:14:02.119,85704,8787,8530,66254,99397
2025-05-29 19:14:02.126,85719,8764,8528,66261,99389
2025-05-29 19:14:02.139,85712,8754,8540,66265,99388
2025-05-29 19:14:02.147,85700,8773,8534,66258,99393
2025-05-29 19:14:02.180,85708,8777,8543,66248,99392
2025-05-29 19:14:02.181,85691,8782,8544,66258,99388
2025-05-29 19:14:02.183,85687,8780,8553,66254,99390
2025-05-29 19:14:02.186,85690,8768,8561,66264,99394
2025-05-29 19:14:02.199,85688,8784,8566,66260,99375
2025-05-29 19:14:02.206,85694,8785,8565,66263,99404
2025-05-29 19:14:02.219,85702,8791,8557,66267,99409
2025-05-29 19:14:02.227,85716,8796,8578,66276,99397
2025-05-29 19:14:02.251,85725,8804,8584,66285,99412
2025-05-29 19:14:02.253,85743,8787,8576,66281,99404
2025-05-29 19:14:02.259,85728,8799,8593,66273,99424
2025-05-29 19:14:02.266,85748,8797,8599,66285,99430
2025-05-29 19:14:02.278,85766,8806,8608,66288,99417
2025-05-29 19:14:02.286,85769,8799,8591,66285,99428
2025-05-29 19:14:02.298,85765,8805,8590,66296,99432
2025-05-29 19:14:02.323,85754,8810,8586,66303,99443
2025-05-29 19:14:02.325,85751,8789,8578,66304,99440
2025-05-29 19:14:02.326,85757,8797,8582,66312,99442
2025-05-29 19:14:02.339,85760,8785,8586,66310,99437
2025-05-29 19:14:02.350,85762,8789,8577,66309,99444
2025-05-29 19:14:02.359,85756,8780,8607,66318,99423
2025-05-29 19:14:02.370,85765,8782,8608,66314,99428
2025-05-29 19:14:02.394,85773,8778,8598,66325,99426
2025-05-29 19:14:02.396,85777,8780,8592,66317,99430
2025-05-29 19:14:02.398,85779,8790,8596,66321,99416
2025-05-29 19:14:02.410,85784,8785,8591,66320,99443
2025-05-29 19:14:02.418,85798,8779,8599,66331,99429
2025-05-29 19:14:02.431,85792,8772,8605,66337,99447
2025-05-29 19:14:02.439,85795,8776,8613,66335,99456
2025-05-29 19:14:02.463,85798,8793,8615,66331,99452
2025-05-29 19:14:02.465,85815,8798,8602,66345,99456
2025-05-29 19:14:02.470,85803,8793,8611,66356,99461
2025-05-29 19:14:02.479,85816,8801,8622,66343,99466
2025-05-29 19:14:02.491,85844,8806,8633,66359,99488
2025-05-29 19:14:02.499,85834,8798,8641,66349,99491
2025-05-29 19:14:02.510,85858,8815,8643,66341,99487
2025-05-29 19:14:02.536,85866,8819,8634,66352,99505
2025-05-29 19:14:02.538,85861,8835,8652,66354,99505
2025-05-29 19:14:02.540,85887,8827,8661,66371,99497
2025-05-29 19:14:02.550,85888,8822,8672,66378,99518
2025-05-29 19:14:02.559,85908,8836,8670,66353,99512
2025-05-29 19:14:02.571,85906,8837,8653,66366,99535
2025-05-29 19:14:02.578,85920,8859,8673,66372,99533
2025-05-29 19:14:02.611,85930,8851,8680,66369,99540
2025-05-29 19:14:02.613,85949,8836,8681,66349,99528
2025-05-29 19:14:02.614,85966,8855,8672,66356,99525
2025-05-29 19:14:02.618,85958,8853,8676,66358,99539
2025-05-29 19:14:02.631,85964,8862,8680,66366,99522
2025-05-29 19:14:02.638,85979,8867,8687,66357,99521
2025-05-29 19:14:02.651,86009,8868,8691,66362,99537
2025-05-29 19:14:02.659,86019,8865,8694,66358,99535
2025-05-29 19:14:02.689,86019,8861,8701,66366,99553
2025-05-29 19:14:02.691,86020,8871,8695,66356,99548
2025-05-29 19:14:02.692,86043,8867,8697,66351,99547
2025-05-29 19:14:02.702,86044,8872,8705,66337,99540
2025-05-29 19:14:02.710,86049,8876,8711,66328,99541
2025-05-29 19:14:02.722,86074,8873,8711,66326,99549
2025-05-29 19:14:02.730,86070,8878,8719,66326,99546
2025-05-29 19:14:02.767,86087,8881,8723,66339,99546
2025-05-29 19:14:02.769,86104,8879,8720,66309,99564
2025-05-29 19:14:02.771,86115,8889,8709,66308,99547
2025-05-29 19:14:02.772,86103,8891,8719,66296,99555
2025-05-29 19:14:02.783,86093,8895,8713,66312,99531
2025-05-29 19:14:02.790,86100,8887,8694,66307,99529
2025-05-29 19:14:02.804,86060,8867,8673,66286,99512
2025-05-29 19:14:02.810,86027,8854,8668,66289,99488
2025-05-29 19:14:02.844,85994,8830,8641,66267,99441
2025-05-29 19:14:02.846,85961,8807,8631,66260,99406
2025-05-29 19:14:02.848,85946,8772,8613,66258,99388
2025-05-29 19:14:02.850,85922,8737,8597,66238,99347
2025-05-29 19:14:02.863,85894,8720,8579,66228,99336
2025-05-29 19:14:02.870,85864,8700,8558,66201,99300
2025-05-29 19:14:02.883,85843,8686,8532,66221,99286
2025-05-29 19:14:02.891,85816,8667,8527,66210,99250
2025-05-29 19:14:02.917,85816,8660,8517,66199,99236
2025-05-29 19:14:02.919,85803,8644,8522,66220,99244
2025-05-29 19:14:02.923,85797,8648,8519,66193,99228
2025-05-29 19:14:02.931,85805,8641,8504,66208,99228
2025-05-29 19:14:02.943,85780,8643,8509,66210,99215
2025-05-29 19:14:02.950,85787,8641,8509,66197,99205
2025-05-29 19:14:02.963,85776,8620,8517,66195,99217
2025-05-29 19:14:02.992,85784,8635,8510,66169,99221
2025-05-29 19:14:02.994,85777,8642,8505,66184,99223
2025-05-29 19:14:02.996,85790,8638,8515,66180,99238
2025-05-29 19:14:03.002,85789,8646,8520,66196,99202
2025-05-29 19:14:03.011,85795,8649,8529,66194,99196
2025-05-29 19:14:03.023,85815,8643,8531,66212,99218
2025-05-29 19:14:03.031,85819,8652,8538,66212,99246
2025-05-29 19:14:03.067,85822,8658,8551,66206,99248
2025-05-29 19:14:03.070,85818,8666,8550,66193,99242
2025-05-29 19:14:03.072,85822,8671,8557,66207,99253
2025-05-29 19:14:03.074,85825,8662,8558,66206,99245
2025-05-29 19:14:03.083,85829,8669,8562,66205,99268
2025-05-29 19:14:03.091,85827,8672,8565,66219,99277
2025-05-29 19:14:03.103,85839,8679,8556,66172,99320
2025-05-29 19:14:03.110,85848,8670,8557,66192,99346
2025-05-29 19:14:03.139,85847,8669,8558,66210,99279
2025-05-29 19:14:03.140,85851,8666,8563,66232,99257
2025-05-29 19:14:03.143,85857,8673,8557,66209,99231
2025-05-29 19:14:03.154,85842,8671,8546,66219,99240
2025-05-29 19:14:03.155,85842,8671,8546,66219,99240
2025-05-29 19:14:03.163,85826,8677,8553,66233,99292
2025-05-29 19:14:03.175,85845,8677,8557,66245,99279
2025-05-29 19:14:03.183,85851,8676,8559,66245,99283
2025-05-29 19:14:03.210,85858,8675,8558,66246,99292
2025-05-29 19:14:03.211,85874,8669,8571,66261,99286
2025-05-29 19:14:03.214,85880,8679,8563,66250,99313
2025-05-29 19:14:03.224,85891,8688,8563,66253,99305
2025-05-29 19:14:03.235,85891,8693,8565,66276,99334
2025-05-29 19:14:03.243,85904,8706,8591,66281,99329
2025-05-29 19:14:03.254,85921,8704,8588,66300,99345
2025-05-29 19:14:03.282,85923,8709,8597,66303,99378
2025-05-29 19:14:03.284,85931,8726,8603,66311,99378
2025-05-29 19:14:03.286,85930,8733,8601,66328,99406
2025-05-29 19:14:03.294,85942,8747,8618,66343,99411
2025-05-29 19:14:03.303,85976,8752,8628,66346,99427
2025-05-29 19:14:03.315,85974,8759,8637,66359,99437
2025-05-29 19:14:03.322,85984,8760,8640,66353,99458
2025-05-29 19:14:03.353,85989,8775,8643,66371,99460
2025-05-29 19:14:03.355,86005,8792,8648,66394,99475
2025-05-29 19:14:03.356,86026,8804,8666,66380,99470
2025-05-29 19:14:03.362,86032,8799,8674,66403,99485
2025-05-29 19:14:03.375,86045,8799,8685,66400,99502
2025-05-29 19:14:03.382,86056,8808,8693,66401,99507
2025-05-29 19:14:03.395,86069,8819,8693,66408,99527
2025-05-29 19:14:03.427,86074,8825,8702,66402,99526
2025-05-29 19:14:03.430,86081,8842,8696,66403,99541
2025-05-29 19:14:03.432,86084,8830,8707,66401,99547
2025-05-29 19:14:03.434,86100,8851,8709,66410,99556
2025-05-29 19:14:03.443,86116,8847,8712,66422,99570
2025-05-29 19:14:03.455,86125,8857,8714,66424,99548
2025-05-29 19:14:03.462,86141,8858,8729,66437,99568
2025-05-29 19:14:03.475,86144,8875,8730,66434,99586
2025-05-29 19:14:03.500,86154,8871,8742,66439,99583
2025-05-29 19:14:03.502,86166,8881,8742,66436,99588
2025-05-29 19:14:03.504,86155,8887,8745,66437,99581
2025-05-29 19:14:03.515,86155,8884,8744,66449,99580
2025-05-29 19:14:03.523,86157,8907,8749,66452,99622
2025-05-29 19:14:03.535,86170,8910,8753,66456,99591
2025-05-29 19:14:03.543,86176,8916,8758,66458,99609
2025-05-29 19:14:03.576,86188,8916,8770,66461,99603
2025-05-29 19:14:03.578,86173,8922,8771,66458,99616
2025-05-29 19:14:03.580,86151,8905,8776,66451,99598
2025-05-29 19:14:03.587,86128,8891,8763,66431,99599
2025-05-29 19:14:03.595,86085,8870,8734,66414,99560
2025-05-29 19:14:03.603,86045,8857,8711,66405,99543
2025-05-29 19:14:03.615,85998,8839,8695,66394,99492
2025-05-29 19:14:03.650,85951,8783,8673,66367,99454
2025-05-29 19:14:03.652,85947,8738,8647,66300,99408
2025-05-29 19:14:03.654,85995,8695,8607,66266,99251
2025-05-29 19:14:03.656,86054,8628,8559,66228,99102
2025-05-29 19:14:03.666,86139,8572,8546,66164,98894
2025-05-29 19:14:03.675,86214,8527,8506,66076,98680
2025-05-29 19:14:03.687,86238,8478,8504,66006,98509
2025-05-29 19:14:03.694,86263,8471,8483,65961,98384
2025-05-29 19:14:03.721,86286,8452,8467,65943,98274
2025-05-29 19:14:03.723,86290,8450,8475,65902,98197
2025-05-29 19:14:03.727,86280,8451,8462,65893,98138
2025-05-29 19:14:03.734,86260,8448,8469,65902,98124
2025-05-29 19:14:03.747,86232,8460,8479,65894,98120
2025-05-29 19:14:03.755,86141,8476,8471,65878,98095
2025-05-29 19:14:03.767,86067,8493,8465,65890,98120
2025-05-29 19:14:03.795,86006,8503,8467,65875,98152
2025-05-29 19:14:03.797,85978,8511,8473,65885,98137
2025-05-29 19:14:03.800,85931,8528,8479,65888,98182
2025-05-29 19:14:03.807,85922,8536,8471,65873,98194
2025-05-29 19:14:03.814,85905,8542,8481,65880,98190
2025-05-29 19:14:03.827,85908,8568,8485,65908,98215
2025-05-29 19:14:03.835,85900,8567,8491,65924,98279
2025-05-29 19:14:03.868,85858,8589,8503,65951,98329
2025-05-29 19:14:03.870,85796,8615,8508,65987,98417
2025-05-29 19:14:03.872,85686,8611,8508,65931,98486
2025-05-29 19:14:03.874,85571,8625,8492,65865,98444
2025-05-29 19:14:03.887,85528,8616,8482,65854,98416
2025-05-29 19:14:03.894,85516,8624,8474,65835,98401
2025-05-29 19:14:03.907,85515,8623,8470,65811,98417
2025-05-29 19:14:03.914,85518,8620,8454,65742,98400
2025-05-29 19:14:03.942,85509,8625,8453,65700,98343
2025-05-29 19:14:03.944,85471,8617,8426,65614,98269
2025-05-29 19:14:03.947,85424,8607,8406,65570,98198
2025-05-29 19:14:03.955,85413,8601,8402,65541,98115
2025-05-29 19:14:03.967,85401,8603,8409,65516,98065
2025-05-29 19:14:03.974,85380,8593,8411,65532,98057
2025-05-29 19:14:03.987,85381,8592,8409,65509,98035
2025-05-29 19:14:04.014,85377,8598,8412,65496,98020
2025-05-29 19:14:04.015,85372,8592,8413,65514,98032
2025-05-29 19:14:04.018,85422,8605,8430,65510,98034
2025-05-29 19:14:04.027,85446,8601,8435,65522,98041
2025-05-29 19:14:04.039,85476,8590,8443,65547,98036
2025-05-29 19:14:04.047,85508,8608,8445,65572,98074
2025-05-29 19:14:04.058,85519,8624,8445,65596,98125
2025-05-29 19:14:04.087,85549,8642,8470,65621,98167
2025-05-29 19:14:04.089,85571,8641,8478,65627,98185
2025-05-29 19:14:04.090,85579,8636,8474,65636,98188
2025-05-29 19:14:04.099,85619,8647,8493,65658,98224
2025-05-29 19:14:04.106,85624,8664,8494,65663,98242
2025-05-29 19:14:04.118,85644,8665,8493,65681,98280
2025-05-29 19:14:04.126,85644,8676,8510,65695,98295
2025-05-29 19:14:04.161,85638,8675,8513,65695,98290
2025-05-29 19:14:04.163,85647,8682,8524,65707,98276
2025-05-29 19:14:04.165,85652,8693,8531,65715,98285
2025-05-29 19:14:04.167,85660,8687,8530,65733,98293
2025-05-29 19:14:04.179,85668,8683,8539,65731,98313
2025-05-29 19:14:04.187,85676,8693,8555,65745,98330
2025-05-29 19:14:04.199,85674,8684,8552,65751,98347
2025-05-29 19:14:04.207,85683,8694,8557,65763,98372
2025-05-29 19:14:04.236,85673,8680,8562,65762,98369
2025-05-29 19:14:04.238,85673,8681,8561,65775,98383
2025-05-29 19:14:04.239,85678,8680,8561,65800,98390
2025-05-29 19:14:04.247,85698,8685,8581,65819,98409
2025-05-29 19:14:04.259,85712,8684,8565,65813,98440
2025-05-29 19:14:04.266,85716,8681,8573,65821,98434
2025-05-29 19:14:04.279,85732,8683,8565,65808,98452
2025-05-29 19:14:04.307,85745,8683,8552,65813,98421
2025-05-29 19:14:04.308,85777,8695,8560,65812,98405
2025-05-29 19:14:04.310,85797,8692,8558,65831,98395
2025-05-29 19:14:04.319,85801,8690,8556,65810,98347
2025-05-29 19:14:04.326,85836,8676,8557,65795,98304
2025-05-29 19:14:04.339,85895,8679,8555,65788,98274
2025-05-29 19:14:04.346,85958,8700,8553,65822,98260
2025-05-29 19:14:04.377,86012,8704,8550,65857,98271
2025-05-29 19:14:04.379,86068,8734,8560,65895,98315
2025-05-29 19:14:04.381,86075,8734,8544,65926,98341
2025-05-29 19:14:04.391,86046,8720,8546,65915,98365
2025-05-29 19:14:04.398,86022,8721,8511,65911,98397
2025-05-29 19:14:04.411,85973,8702,8481,65907,98368
2025-05-29 19:14:04.418,85982,8695,8471,65903,98353
2025-05-29 19:14:04.450,85972,8665,8459,65918,98306
2025-05-29 19:14:04.452,85977,8657,8438,65911,98305
2025-05-29 19:14:04.454,85953,8651,8428,65904,98295
2025-05-29 19:14:04.459,85924,8638,8418,65892,98271
2025-05-29 19:14:04.470,85903,8641,8397,65886,98258
2025-05-29 19:14:04.478,85892,8632,8388,65899,98240
2025-05-29 19:14:04.491,85906,8631,8389,65906,98259
2025-05-29 19:14:04.499,85898,8637,8394,65925,98296
2025-05-29 19:14:04.523,85890,8649,8392,65934,98310
2025-05-29 19:14:04.525,85888,8649,8384,65951,98351
2025-05-29 19:14:04.530,85910,8676,8384,65962,98361
2025-05-29 19:14:04.539,85899,8701,8397,65971,98401
2025-05-29 19:14:04.551,85891,8701,8399,65993,98404
2025-05-29 19:14:04.559,85884,8709,8404,66007,98421
2025-05-29 19:14:04.571,85885,8719,8409,66024,98443
2025-05-29 19:14:04.594,85892,8740,8414,66029,98494
2025-05-29 19:14:04.596,85904,8755,8426,66035,98508
2025-05-29 19:14:04.598,85914,8744,8430,66039,98499
2025-05-29 19:14:04.611,85954,8767,8438,66026,98498
2025-05-29 19:14:04.619,85937,8768,8440,65980,98489
2025-05-29 19:14:04.631,85940,8765,8439,65941,98485
2025-05-29 19:14:04.639,85895,8764,8436,65894,98410
2025-05-29 19:14:04.668,85841,8774,8440,65867,98374
2025-05-29 19:14:04.670,85774,8775,8428,65826,98377
2025-05-29 19:14:04.672,85682,8771,8411,65803,98351
2025-05-29 19:14:04.679,85636,8767,8407,65771,98330
2025-05-29 19:14:04.691,85616,8750,8393,65713,98272
2025-05-29 19:14:04.698,85608,8717,8372,65643,98165
2025-05-29 19:14:04.711,85652,8688,8352,65566,98080
2025-05-29 19:14:04.740,85681,8676,8319,65519,97971
2025-05-29 19:14:04.742,85702,8671,8313,65500,97894
2025-05-29 19:14:04.744,85653,8683,8316,65465,97869
2025-05-29 19:14:04.751,85589,8677,8309,65459,97842
2025-05-29 19:14:04.763,85507,8698,8323,65487,97902
2025-05-29 19:14:04.765,85507,8698,8323,65487,97902
2025-05-29 19:14:04.771,85257,8728,8297,65433,98026
2025-05-29 19:14:04.780,85264,8733,8305,65443,98012
2025-05-29 19:14:04.812,85322,8741,8309,65454,98024
2025-05-29 19:14:04.814,85322,8741,8309,65454,98024
2025-05-29 19:14:04.816,85275,8740,8292,65419,98070
2025-05-29 19:14:04.822,85205,8740,8273,65365,98029
2025-05-29 19:14:04.831,85164,8739,8275,65331,97999
2025-05-29 19:14:04.843,85151,8738,8271,65294,97923
2025-05-29 19:14:04.851,85168,8733,8270,65294,97891
2025-05-29 19:14:04.886,85154,8742,8278,65263,97881
2025-05-29 19:14:04.888,85179,8752,8285,65229,97879
2025-05-29 19:14:04.889,85184,8764,8282,65237,97873
2025-05-29 19:14:04.891,85202,8768,8287,65224,97878
2025-05-29 19:14:04.902,85227,8787,8293,65244,97888
2025-05-29 19:14:04.910,85259,8792,8301,65255,97916
2025-05-29 19:14:04.923,85290,8822,8308,65280,97937
2025-05-29 19:14:04.930,85319,8821,8312,65296,97966
2025-05-29 19:14:04.959,85373,8832,8318,65314,97976
2025-05-29 19:14:04.961,85432,8836,8331,65342,98004
2025-05-29 19:14:04.963,85497,8844,8335,65368,98008
2025-05-29 19:14:04.967,85497,8844,8335,65368,98008
2025-05-29 19:14:04.971,85590,8866,8345,65420,98057
2025-05-29 19:14:04.983,85606,8885,8361,65450,98082
2025-05-29 19:14:04.991,85616,8896,8367,65471,98116
2025-05-29 19:14:05.003,85653,8903,8372,65493,98139
2025-05-29 19:14:05.033,85668,8916,8382,65507,98154
2025-05-29 19:14:05.035,85680,8911,8389,65540,98149
2025-05-29 19:14:05.037,85702,8935,8408,65568,98187
2025-05-29 19:14:05.043,85722,8940,8409,65583,98224
2025-05-29 19:14:05.051,85735,8963,8412,65606,98276
2025-05-29 19:14:05.063,85751,8971,8414,65647,98304
2025-05-29 19:14:05.071,85803,8995,8428,65658,98362
2025-05-29 19:14:05.082,85836,8999,8442,65698,98365
2025-05-29 19:14:05.108,85888,9009,8454,65717,98399
2025-05-29 19:14:05.110,85909,9020,8452,65722,98438
2025-05-29 19:14:05.113,85943,9037,8455,65757,98466
2025-05-29 19:14:05.123,85967,9059,8465,65775,98503
2025-05-29 19:14:05.131,85993,9065,8470,65791,98521
2025-05-29 19:14:05.142,85989,9079,8487,65819,98546
2025-05-29 19:14:05.150,86011,9096,8484,65831,98573
2025-05-29 19:14:05.179,86024,9090,8477,65825,98602
2025-05-29 19:14:05.181,85995,9093,8462,65820,98586
2025-05-29 19:14:05.183,85963,9079,8462,65814,98581
2025-05-29 19:14:05.191,85957,9054,8438,65817,98533
2025-05-29 19:14:05.202,85924,9032,8419,65821,98526
2025-05-29 19:14:05.210,85908,9016,8404,65812,98539
2025-05-29 19:14:05.224,85876,9011,8383,65821,98517
2025-05-29 19:14:05.254,85842,8983,8371,65828,98535
2025-05-29 19:14:05.256,85802,8975,8360,65843,98555
2025-05-29 19:14:05.258,85770,8965,8352,65854,98555
2025-05-29 19:14:05.262,85728,8957,8337,65842,98526
2025-05-29 19:14:05.275,85706,8943,8336,65846,98513
2025-05-29 19:14:05.283,85695,8936,8338,65852,98515
2025-05-29 19:14:05.291,85663,8937,8340,65836,98493
2025-05-29 19:14:05.327,85631,8929,8334,65807,98480
2025-05-29 19:14:05.329,85640,8928,8332,65802,98451
2025-05-29 19:14:05.331,85619,8922,8338,65803,98445
2025-05-29 19:14:05.334,85630,8926,8337,65799,98438
2025-05-29 19:14:05.342,85613,8923,8336,65783,98439
2025-05-29 19:14:05.355,85580,8922,8341,65767,98427
2025-05-29 19:14:05.362,85580,8926,8342,65769,98422
2025-05-29 19:14:05.375,85565,8920,8336,65764,98420
2025-05-29 19:14:05.399,85551,8932,8350,65762,98412
2025-05-29 19:14:05.401,85539,8925,8347,65775,98396
2025-05-29 19:14:05.403,85524,8921,8350,65789,98393
2025-05-29 19:14:05.414,85521,8923,8361,65802,98406
2025-05-29 19:14:05.423,85491,8944,8359,65796,98441
2025-05-29 19:14:05.435,85495,8938,8355,65806,98448
2025-05-29 19:14:05.443,85456,8952,8363,65802,98460
2025-05-29 19:14:05.472,85473,8943,8362,65815,98447
2025-05-29 19:14:05.474,85460,8938,8379,65822,98455
2025-05-29 19:14:05.476,85478,8934,8370,65830,98458
2025-05-29 19:14:05.482,85456,8935,8355,65830,98490
2025-05-29 19:14:05.495,85445,8935,8371,65845,98497
2025-05-29 19:14:05.503,85433,8940,8369,65872,98505
2025-05-29 19:14:05.515,85394,8942,8379,65873,98528
2025-05-29 19:14:05.547,85368,8935,8381,65882,98556
2025-05-29 19:14:05.549,85313,8954,8376,65908,98585
2025-05-29 19:14:05.551,85278,8941,8377,65921,98615
2025-05-29 19:14:05.555,85240,8947,8386,65939,98627
2025-05-29 19:14:05.563,85233,8934,8394,65949,98641
2025-05-29 19:14:05.574,85194,8936,8382,65932,98650
2025-05-29 19:14:05.583,85179,8928,8386,65918,98645
2025-05-29 19:14:05.595,85165,8921,8380,65914,98628
2025-05-29 19:14:05.622,85160,8928,8383,65913,98616
2025-05-29 19:14:05.624,85200,8923,8384,65918,98623
2025-05-29 19:14:05.625,85219,8921,8387,65918,98611
2025-05-29 19:14:05.635,85223,8909,8389,65912,98594
2025-05-29 19:14:05.642,85220,8918,8390,65924,98590
2025-05-29 19:14:05.655,85222,8918,8405,65936,98584
2025-05-29 19:14:05.663,85244,8915,8400,65952,98592
2025-05-29 19:14:05.694,85240,8926,8410,65965,98599
2025-05-29 19:14:05.696,85248,8908,8412,65976,98611
2025-05-29 19:14:05.698,85241,8913,8420,65978,98620
2025-05-29 19:14:05.708,85288,8916,8419,65986,98606
2025-05-29 19:14:05.715,85304,8916,8411,65981,98608
2025-05-29 19:14:05.727,85333,8917,8431,65992,98601
2025-05-29 19:14:05.735,85334,8918,8434,65986,98605
2025-05-29 19:14:05.768,85361,8917,8449,65988,98597
2025-05-29 19:14:05.770,85383,8923,8437,65989,98588
2025-05-29 19:14:05.771,85402,8926,8451,65972,98594
2025-05-29 19:14:05.774,85442,8936,8451,65995,98607
2025-05-29 19:14:05.787,85449,8940,8457,65993,98603
2025-05-29 19:14:05.795,85469,8956,8465,65996,98612
2025-05-29 19:14:05.807,85483,8958,8457,66016,98580
2025-05-29 19:14:05.815,85490,8961,8478,65986,98592
2025-05-29 19:14:05.840,85514,8968,8487,65999,98608
2025-05-29 19:14:05.842,85509,8992,8485,66000,98617
2025-05-29 19:14:05.846,85523,8985,8489,66042,98639
2025-05-29 19:14:05.855,85519,8991,8491,66054,98624
2025-05-29 19:14:05.867,85534,8993,8497,66050,98643
2025-05-29 19:14:05.875,85555,9013,8515,66050,98662
2025-05-29 19:14:05.887,85557,9014,8511,66063,98682
2025-05-29 19:14:05.912,85583,9006,8517,66052,98683
2025-05-29 19:14:05.914,85586,9020,8525,66045,98666
2025-05-29 19:14:05.939,85592,9013,8533,66042,98684
2025-05-29 19:14:05.941,85591,9030,8534,66030,98694
2025-05-29 19:14:05.943,85580,9037,8531,66028,98693
2025-05-29 19:14:05.946,85575,9050,8544,66018,98701
2025-05-29 19:14:05.954,85578,9046,8543,66021,98693
2025-05-29 19:14:05.985,85577,9033,8533,65995,98654
2025-05-29 19:14:05.987,85555,9022,8534,65998,98613
2025-05-29 19:14:05.988,85525,8999,8512,65986,98564
2025-05-29 19:14:05.995,85495,8985,8493,65984,98551
2025-05-29 19:14:06.007,85485,8969,8478,66007,98535
2025-05-29 19:14:06.019,85455,8946,8477,66025,98537
2025-05-29 19:14:06.027,85430,8934,8454,66021,98539
2025-05-29 19:14:06.058,85378,8898,8439,65993,98518
2025-05-29 19:14:06.060,85338,8899,8409,65991,98497
2025-05-29 19:14:06.063,85303,8866,8404,65980,98466
2025-05-29 19:14:06.068,85275,8866,8380,65979,98449
2025-05-29 19:14:06.079,85238,8838,8387,65976,98436
2025-05-29 19:14:06.086,85204,8847,8371,65981,98421
2025-05-29 19:14:06.099,85176,8830,8366,65972,98425
2025-05-29 19:14:06.132,85162,8842,8379,65975,98437
2025-05-29 19:14:06.135,85139,8843,8386,65999,98459
2025-05-29 19:14:06.136,85089,8845,8385,65979,98475
2025-05-29 19:14:06.139,85018,8847,8388,65974,98459
2025-05-29 19:14:06.147,84968,8853,8377,65945,98459
2025-05-29 19:14:06.159,84936,8858,8387,65928,98468
2025-05-29 19:14:06.167,84917,8864,8372,65940,98462
2025-05-29 19:14:06.180,84910,8879,8389,65936,98500
2025-05-29 19:14:06.206,84911,8890,8381,65964,98530
2025-05-29 19:14:06.207,84924,8906,8402,65987,98574
2025-05-29 19:14:06.209,84900,8919,8397,65967,98623
2025-05-29 19:14:06.219,84897,8939,8413,65967,98653
2025-05-29 19:14:06.227,84860,8945,8397,65955,98658
2025-05-29 19:14:06.239,84858,8957,8408,65950,98675
2025-05-29 19:14:06.247,84833,8958,8415,65941,98653
2025-05-29 19:14:06.277,84807,8956,8401,65901,98617
2025-05-29 19:14:06.279,84798,8951,8409,65902,98600
2025-05-29 19:14:06.281,84767,8941,8386,65896,98593
2025-05-29 19:14:06.287,84766,8944,8393,65912,98569
2025-05-29 19:14:06.299,84730,8937,8389,65916,98566
2025-05-29 19:14:06.307,84689,8916,8378,65897,98583
2025-05-29 19:14:06.318,84656,8906,8368,65883,98551
2025-05-29 19:14:06.351,84609,8884,8343,65858,98538
2025-05-29 19:14:06.353,84580,8868,8347,65846,98485
2025-05-29 19:14:06.355,84560,8847,8325,65816,98452
2025-05-29 19:14:06.359,84544,8838,8320,65799,98399
2025-05-29 19:14:06.371,84553,8834,8329,65783,98373
2025-05-29 19:14:06.373,84553,8834,8329,65783,98373
2025-05-29 19:14:06.378,84582,8809,8343,65776,98328
2025-05-29 19:14:06.388,84573,8809,8318,65751,98319
2025-05-29 19:14:06.399,84583,8797,8333,65759,98283
2025-05-29 19:14:06.424,84580,8799,8316,65761,98290
2025-05-29 19:14:06.425,84578,8800,8321,65773,98289
2025-05-29 19:14:06.427,84564,8791,8308,65756,98300
2025-05-29 19:14:06.438,84559,8804,8325,65750,98290
2025-05-29 19:14:06.447,84570,8812,8316,65750,98296
2025-05-29 19:14:06.459,84578,8813,8325,65750,98289
2025-05-29 19:14:06.467,84605,8812,8317,65765,98286
2025-05-29 19:14:06.496,84621,8830,8326,65806,98312
2025-05-29 19:14:06.498,84643,8863,8332,65854,98381
2025-05-29 19:14:06.500,84598,8884,8311,65874,98494
2025-05-29 19:14:06.512,84689,8924,8334,65930,98570
2025-05-29 19:14:06.519,84663,8948,8337,65961,98662
2025-05-29 19:14:06.532,84636,8951,8334,65969,98711
2025-05-29 19:14:06.540,84641,8965,8345,65985,98756
2025-05-29 19:14:06.575,84634,8972,8358,65974,98771
2025-05-29 19:14:06.577,84625,8992,8363,65987,98774
2025-05-29 19:14:06.579,84598,9006,8350,65969,98826
2025-05-29 19:14:06.581,84608,9015,8352,65983,98825
2025-05-29 19:14:06.591,84624,9033,8372,65982,98840
2025-05-29 19:14:06.599,84609,9042,8383,66017,98855
2025-05-29 19:14:06.612,84675,9056,8401,66028,98885
2025-05-29 19:14:06.618,84740,9055,8412,66038,98937
2025-05-29 19:14:06.648,84748,9068,8423,66037,98933
2025-05-29 19:14:06.650,84718,9077,8442,66054,98927
2025-05-29 19:14:06.652,84704,9091,8461,66069,98944
2025-05-29 19:14:06.659,84728,9091,8479,66074,98964
2025-05-29 19:14:06.671,84865,9092,8483,66112,98951
2025-05-29 19:14:06.679,84928,9094,8500,66128,99001
2025-05-29 19:14:06.691,85027,9089,8503,66134,98941
2025-05-29 19:14:06.718,85105,9072,8508,66138,98951
2025-05-29 19:14:06.720,85150,9067,8509,66105,98907
2025-05-29 19:14:06.722,85233,9050,8517,66056,98855
2025-05-29 19:14:06.731,85366,9052,8519,66063,98801
2025-05-29 19:14:06.739,85490,9041,8514,66043,98774
2025-05-29 19:14:06.751,85607,9026,8506,66014,98715
2025-05-29 19:14:06.758,85749,9013,8505,66003,98648
2025-05-29 19:14:06.790,85902,8986,8495,66024,98571
2025-05-29 19:14:06.791,85997,8965,8484,65998,98536
2025-05-29 19:14:06.793,86054,8944,8453,65983,98493
2025-05-29 19:14:06.799,86118,8922,8421,65971,98422
2025-05-29 19:14:06.812,86180,8906,8407,65993,98380
2025-05-29 19:14:06.819,86257,8873,8397,66008,98361
2025-05-29 19:14:06.831,86327,8854,8374,66036,98345
2025-05-29 19:14:06.864,86402,8832,8373,66055,98358
2025-05-29 19:14:06.866,86483,8833,8372,66072,98365
2025-05-29 19:14:06.868,86562,8812,8361,66086,98362
2025-05-29 19:14:06.871,86601,8806,8367,66078,98349
2025-05-29 19:14:06.879,86663,8787,8355,66067,98329
2025-05-29 19:14:06.892,86731,8777,8352,66088,98315
2025-05-29 19:14:06.899,86852,8784,8356,66082,98299
2025-05-29 19:14:06.911,86945,8789,8355,66113,98282
2025-05-29 19:14:06.937,87039,8783,8366,66110,98316
2025-05-29 19:14:06.939,87083,8792,8368,66141,98349
2025-05-29 19:14:06.941,87126,8804,8370,66129,98363
2025-05-29 19:14:06.952,87177,8817,8377,66145,98394
2025-05-29 19:14:06.963,87260,8810,8394,66122,98375
2025-05-29 19:14:06.971,87299,8823,8400,66086,98346
2025-05-29 19:14:06.983,87305,8835,8402,66058,98332
2025-05-29 19:14:07.009,87262,8829,8401,65982,98262
2025-05-29 19:14:07.011,87232,8835,8396,65952,98193
2025-05-29 19:14:07.012,87201,8835,8384,65903,98138
2025-05-29 19:14:07.023,87180,8837,8389,65860,98076
2025-05-29 19:14:07.031,87183,8855,8372,65827,98048
2025-05-29 19:14:07.043,87175,8864,8377,65816,98030
2025-05-29 19:14:07.051,87196,8870,8379,65780,98004
2025-05-29 19:14:07.082,87228,8896,8379,65772,97968
2025-05-29 19:14:07.084,87227,8899,8379,65761,97989
2025-05-29 19:14:07.086,87207,8902,8368,65730,97943
2025-05-29 19:14:07.092,87185,8909,8361,65694,97926
2025-05-29 19:14:07.103,87170,8909,8347,65686,97873
2025-05-29 19:14:07.111,87164,8921,8340,65677,97862
2025-05-29 19:14:07.124,87211,8933,8340,65685,97845
2025-05-29 19:14:07.130,87278,8947,8338,65680,97849
2025-05-29 19:14:07.160,87357,8953,8339,65721,97880
2025-05-29 19:14:07.162,87395,8964,8333,65700,97881
2025-05-29 19:14:07.164,87486,8977,8347,65737,97897
2025-05-29 19:14:07.172,87552,9001,8351,65746,97906
2025-05-29 19:14:07.182,87622,9017,8357,65771,97960
2025-05-29 19:14:07.191,87674,9030,8369,65794,97986
2025-05-29 19:14:07.203,87723,9049,8376,65822,98047
2025-05-29 19:14:07.232,87767,9067,8385,65839,98069
2025-05-29 19:14:07.234,87792,9082,8397,65857,98104
2025-05-29 19:14:07.236,87824,9097,8406,65876,98130
2025-05-29 19:14:07.243,87858,9111,8415,65888,98140
2025-05-29 19:14:07.251,87900,9134,8435,65920,98189
2025-05-29 19:14:07.263,87938,9153,8455,65942,98238
2025-05-29 19:14:07.271,87970,9179,8470,65978,98298
2025-05-29 19:14:07.302,87947,9206,8495,66010,98362
2025-05-29 19:14:07.304,87933,9229,8517,66019,98410
2025-05-29 19:14:07.305,87911,9253,8533,66039,98487
2025-05-29 19:14:07.311,87899,9278,8558,66064,98526
2025-05-29 19:14:07.323,87881,9310,8571,66085,98582
2025-05-29 19:14:07.331,87864,9328,8588,66106,98620
2025-05-29 19:14:07.343,87872,9340,8601,66144,98671
2025-05-29 19:14:07.351,87870,9370,8618,66185,98726
2025-05-29 19:14:07.374,87894,9388,8649,66224,98787
2025-05-29 19:14:07.376,87911,9420,8668,66288,98881
2025-05-29 19:14:07.383,87899,9447,8699,66352,98958
2025-05-29 19:14:07.391,87875,9469,8721,66411,99068
2025-05-29 19:14:07.403,87844,9491,8758,66469,99169
2025-05-29 19:14:07.411,87800,9515,8763,66519,99264
2025-05-29 19:14:07.422,87747,9538,8791,66564,99348
2025-05-29 19:14:07.447,87684,9551,8809,66605,99450
2025-05-29 19:14:07.449,87628,9579,8836,66665,99540
2025-05-29 19:14:07.454,87570,9593,8846,66696,99625
2025-05-29 19:14:07.463,87484,9599,8861,66755,99722
2025-05-29 19:14:07.475,87420,9612,8878,66770,99773
2025-05-29 19:14:07.484,87351,9627,8885,66809,99852
2025-05-29 19:14:07.495,87287,9638,8891,66828,99914
2025-05-29 19:14:07.523,87219,9626,8892,66827,99941
2025-05-29 19:14:07.525,87123,9612,8890,66861,100000
2025-05-29 19:14:07.527,87052,9594,8876,66869,100010
2025-05-29 19:14:07.536,86969,9575,8863,66868,100034
2025-05-29 19:14:07.543,86899,9549,8847,66860,100023
2025-05-29 19:14:07.555,86823,9519,8833,66865,100036
2025-05-29 19:14:07.564,86772,9488,8814,66871,100017
2025-05-29 19:14:07.597,86693,9454,8799,66860,100023
2025-05-29 19:14:07.599,86641,9430,8781,66860,100011
2025-05-29 19:14:07.602,86601,9395,8767,66858,99998
2025-05-29 19:14:07.603,86543,9368,8761,66856,99997
2025-05-29 19:14:07.615,86507,9336,8748,66836,99968
2025-05-29 19:14:07.623,86473,9322,8751,66840,99961
2025-05-29 19:14:07.635,86447,9302,8737,66837,99956
2025-05-29 19:14:07.644,86399,9294,8732,66817,99930
2025-05-29 19:14:07.669,86354,9288,8734,66808,99934
2025-05-29 19:14:07.671,86337,9258,8739,66810,99917
2025-05-29 19:14:07.674,86324,9250,8734,66798,99923
2025-05-29 19:14:07.683,86304,9246,8733,66785,99899
2025-05-29 19:14:07.695,86284,9234,8733,66782,99897
2025-05-29 19:14:07.704,86254,9239,8738,66779,99899
2025-05-29 19:14:07.715,86240,9220,8738,66758,99867
2025-05-29 19:14:07.742,86213,9221,8742,66766,99884
2025-05-29 19:14:07.743,86202,9207,8740,66757,99869
2025-05-29 19:14:07.745,86171,9221,8750,66738,99855
2025-05-29 19:14:07.755,86138,9214,8753,66736,99857
2025-05-29 19:14:07.762,86141,9191,8758,66712,99839
2025-05-29 19:14:07.775,86107,9196,8757,66717,99844
2025-05-29 19:14:07.782,86083,9189,8749,66689,99824
2025-05-29 19:14:07.814,86056,9176,8756,66689,99812
2025-05-29 19:14:07.816,86038,9183,8749,66669,99796
2025-05-29 19:14:07.818,86049,9171,8745,66669,99787
2025-05-29 19:14:07.822,86052,9155,8748,66663,99771
2025-05-29 19:14:07.835,86046,9137,8754,66658,99769
2025-05-29 19:14:07.847,86070,9123,8752,66685,99772
2025-05-29 19:14:07.855,86083,9124,8754,66693,99781
2025-05-29 19:14:07.887,86116,9120,8747,66699,99793
2025-05-29 19:14:07.889,86134,9114,8746,66707,99810
2025-05-29 19:14:07.891,86164,9109,8747,66724,99801
2025-05-29 19:14:07.895,86132,9106,8754,66723,99807
2025-05-29 19:14:07.907,86175,9107,8746,66728,99820
2025-05-29 19:14:07.916,86165,9091,8744,66721,99800
2025-05-29 19:14:07.927,86125,9085,8747,66730,99798
2025-05-29 19:14:07.936,86138,9090,8758,66720,99802
2025-05-29 19:14:07.963,86149,9078,8756,66721,99793
2025-05-29 19:14:07.965,86151,9085,8757,66730,99786
2025-05-29 19:14:07.967,86154,9089,8764,66735,99802
2025-05-29 19:14:07.976,86172,9080,8767,66731,99798
2025-05-29 19:14:07.987,86169,9078,8778,66738,99810
2025-05-29 19:14:07.995,86178,9079,8776,66738,99822
2025-05-29 19:14:08.007,86196,9083,8769,66745,99809
2025-05-29 19:14:08.034,86202,9088,8783,66747,99811
2025-05-29 19:14:08.036,86200,9086,8778,66738,99826
2025-05-29 19:14:08.038,86227,9080,8794,66767,99816
2025-05-29 19:14:08.048,86225,9076,8797,66768,99837
2025-05-29 19:14:08.055,86231,9089,8790,66764,99826
2025-05-29 19:14:08.067,86230,9081,8804,66767,99844
2025-05-29 19:14:08.076,86242,9093,8801,66773,99844
2025-05-29 19:14:08.106,86246,9069,8803,66783,99836
2025-05-29 19:14:08.108,86250,9084,8808,66784,99850
2025-05-29 19:14:08.110,86259,9082,8812,66766,99847
2025-05-29 19:14:08.114,86246,9079,8816,66776,99854
2025-05-29 19:14:08.128,86253,9097,8804,66786,99873
2025-05-29 19:14:08.134,86265,9077,8827,66784,99861
2025-05-29 19:14:08.147,86278,9087,8834,66786,99875
2025-05-29 19:14:08.155,86281,9088,8827,66788,99844
2025-05-29 19:14:08.179,86281,9084,8836,66793,99870
2025-05-29 19:14:08.181,86289,9100,8841,66795,99864
2025-05-29 19:14:08.183,86289,9100,8841,66795,99864
2025-05-29 19:14:08.187,86297,9090,8847,66812,99880
2025-05-29 19:14:08.195,86318,9095,8852,66820,99902
2025-05-29 19:14:08.207,86313,9094,8862,66808,99899
2025-05-29 19:14:08.215,86313,9095,8852,66823,99909
2025-05-29 19:14:08.227,86313,9086,8846,66813,99898
2025-05-29 19:14:08.252,86230,9063,8834,66809,99876
2025-05-29 19:14:08.254,86241,9032,8807,66803,99864
2025-05-29 19:14:08.256,86226,9040,8792,66797,99838
2025-05-29 19:14:08.267,86202,9003,8770,66805,99824
2025-05-29 19:14:08.275,86183,8984,8759,66804,99790
2025-05-29 19:14:08.287,86169,8990,8739,66782,99781
2025-05-29 19:14:08.295,86109,8935,8733,66775,99764
2025-05-29 19:14:08.326,86123,8908,8714,66780,99739
2025-05-29 19:14:08.329,86113,8884,8711,66779,99723
2025-05-29 19:14:08.331,86096,8860,8701,66775,99717
2025-05-29 19:14:08.339,86083,8846,8705,66777,99690
2025-05-29 19:14:08.348,86087,8846,8694,66771,99684
2025-05-29 19:14:08.359,86085,8832,8680,66780,99688
2025-05-29 19:14:08.367,86074,8828,8684,66760,99677
2025-05-29 19:14:08.400,86071,8834,8696,66766,99662
2025-05-29 19:14:08.402,86075,8826,8695,66765,99664
2025-05-29 19:14:08.404,86065,8819,8705,66753,99672
2025-05-29 19:14:08.406,86061,8827,8703,66757,99664
2025-05-29 19:14:08.419,86062,8837,8698,66763,99665
2025-05-29 19:14:08.428,86054,8840,8705,66762,99667
2025-05-29 19:14:08.439,86068,8830,8713,66763,99663
2025-05-29 19:14:08.448,86060,8828,8732,66764,99682
2025-05-29 19:14:08.472,86062,8845,8726,66758,99673
2025-05-29 19:14:08.474,86073,8834,8719,66760,99700
2025-05-29 19:14:08.478,86064,8853,8742,66760,99695
2025-05-29 19:14:08.486,86077,8860,8746,66756,99683
2025-05-29 19:14:08.499,86070,8838,8747,66763,99681
2025-05-29 19:14:08.506,86084,8854,8739,66760,99688
2025-05-29 19:14:08.519,86088,8853,8740,66759,99689
2025-05-29 19:14:08.545,86072,8849,8737,66758,99677
2025-05-29 19:14:08.547,86074,8857,8745,66765,99691
2025-05-29 19:14:08.549,86070,8846,8748,66762,99692
2025-05-29 19:14:08.559,86083,8840,8735,66760,99682
2025-05-29 19:14:08.568,86070,8834,8745,66755,99689
2025-05-29 19:14:08.579,86054,8835,8740,66746,99673
2025-05-29 19:14:08.587,86056,8833,8746,66735,99660
2025-05-29 19:14:08.619,86071,8807,8721,66741,99663
2025-05-29 19:14:08.621,86050,8848,8713,66732,99665
2025-05-29 19:14:08.623,86047,8854,8707,66749,99653
2025-05-29 19:14:08.627,86060,8847,8752,66737,99674
2025-05-29 19:14:08.639,86060,8831,8739,66730,99651
2025-05-29 19:14:08.647,86061,8834,8718,66728,99645
2025-05-29 19:14:08.659,86063,8841,8717,66728,99651
2025-05-29 19:14:08.666,86065,8850,8720,66730,99663
2025-05-29 19:14:08.694,86056,8835,8745,66734,99666
2025-05-29 19:14:08.696,86048,8848,8753,66729,99667
2025-05-29 19:14:08.700,86035,8846,8759,66711,99666
2025-05-29 19:14:08.708,86064,8867,8773,66725,99658
2025-05-29 19:14:08.719,86043,8854,8773,66735,99659
2025-05-29 19:14:08.727,86063,8850,8780,66728,99670
2025-05-29 19:14:08.739,86053,8860,8795,66716,99659
2025-05-29 19:14:08.766,86074,8874,8776,66712,99664
2025-05-29 19:14:08.768,86055,8861,8784,66707,99680
2025-05-29 19:14:08.771,86060,8870,8796,66707,99672
2025-05-29 19:14:08.779,86053,8877,8795,66720,99664
2025-05-29 19:14:08.791,86058,8870,8800,66705,99672
2025-05-29 19:14:08.799,86071,8893,8794,66694,99664
2025-05-29 19:14:08.811,86038,8891,8799,66691,99660
2025-05-29 19:14:08.841,86061,8892,8806,66683,99657
2025-05-29 19:14:08.843,86062,8893,8820,66706,99667
2025-05-29 19:14:08.845,86058,8893,8815,66693,99671
2025-05-29 19:14:08.852,86074,8898,8812,66693,99685
2025-05-29 19:14:08.859,86070,8912,8818,66686,99670
2025-05-29 19:14:08.871,86060,8913,8821,66702,99678
2025-05-29 19:14:08.879,86066,8905,8822,66683,99664
2025-05-29 19:14:08.915,86077,8913,8835,66670,99674
2025-05-29 19:14:08.917,86069,8917,8829,66670,99675
2025-05-29 19:14:08.919,86064,8923,8828,66677,99665
2025-05-29 19:14:08.920,86069,8939,8825,66679,99677
2025-05-29 19:14:08.931,86068,8931,8845,66676,99675
2025-05-29 19:14:08.939,86060,8927,8837,66675,99665
2025-05-29 19:14:08.951,86048,8917,8832,66669,99658
2025-05-29 19:14:08.959,86019,8909,8832,66660,99645
2025-05-29 19:14:08.986,85995,8888,8804,66640,99632
2025-05-29 19:14:08.988,85967,8868,8801,66625,99616
2025-05-29 19:14:08.990,85945,8846,8779,66601,99565
2025-05-29 19:14:08.999,85899,8820,8747,66596,99548
2025-05-29 19:14:09.011,85887,8797,8722,66592,99519
2025-05-29 19:14:09.020,85842,8769,8702,66592,99500
2025-05-29 19:14:09.031,85827,8754,8685,66578,99458
2025-05-29 19:14:09.058,85791,8731,8673,66571,99433
2025-05-29 19:14:09.060,85774,8711,8673,66554,99419
2025-05-29 19:14:09.061,85777,8682,8658,66565,99399
2025-05-29 19:14:09.071,85754,8674,8657,66535,99382
2025-05-29 19:14:09.079,85737,8658,8654,66528,99370
2025-05-29 19:14:09.091,85721,8659,8640,66530,99360
2025-05-29 19:14:09.099,85693,8656,8628,66519,99341
2025-05-29 19:14:09.131,85693,8657,8644,66507,99324
2025-05-29 19:14:09.133,85700,8641,8642,66512,99326
2025-05-29 19:14:09.135,85683,8646,8637,66500,99310
2025-05-29 19:14:09.140,85698,8657,8633,66492,99318
2025-05-29 19:14:09.152,85681,8654,8636,66499,99312
2025-05-29 19:14:09.159,85679,8658,8644,66484,99316
2025-05-29 19:14:09.172,85682,8642,8644,66493,99324
2025-05-29 19:14:09.204,85699,8661,8656,66479,99316
2025-05-29 19:14:09.206,85706,8667,8645,66500,99327
2025-05-29 19:14:09.207,85717,8667,8666,66488,99333
2025-05-29 19:14:09.211,85735,8671,8664,66506,99347
2025-05-29 19:14:09.224,85742,8679,8679,66516,99359
2025-05-29 19:14:09.231,85754,8683,8665,66502,99345
2025-05-29 19:14:09.243,85753,8671,8662,66531,99373
2025-05-29 19:14:09.251,85742,8677,8667,66511,99378
2025-05-29 19:14:09.276,85755,8687,8665,66517,99347
2025-05-29 19:14:09.278,85774,8668,8664,66522,99362
2025-05-29 19:14:09.283,85770,8657,8658,66522,99383
2025-05-29 19:14:09.290,85774,8656,8666,66520,99376
2025-05-29 19:14:09.302,85763,8652,8673,66508,99364
2025-05-29 19:14:09.311,85769,8655,8658,66522,99370
2025-05-29 19:14:09.323,85782,8655,8660,66516,99382
2025-05-29 19:14:09.348,85776,8660,8671,66520,99374
2025-05-29 19:14:09.351,85786,8660,8671,66491,99391
2025-05-29 19:14:09.353,85790,8656,8622,66521,99399
2025-05-29 19:14:09.363,85809,8662,8648,66509,99402
2025-05-29 19:14:09.372,85819,8661,8649,66544,99408
2025-05-29 19:14:09.383,85806,8666,8665,66563,99405
2025-05-29 19:14:09.391,85825,8670,8664,66567,99409
2025-05-29 19:14:09.420,85826,8682,8667,66563,99417
2025-05-29 19:14:09.422,85844,8692,8677,66550,99421
2025-05-29 19:14:09.424,85836,8692,8683,66554,99422
2025-05-29 19:14:09.431,85847,8693,8702,66558,99435
2025-05-29 19:14:09.443,85856,8699,8700,66569,99445
2025-05-29 19:14:09.451,85879,8703,8706,66581,99452
2025-05-29 19:14:09.463,85881,8701,8719,66577,99456
2025-05-29 19:14:09.493,85910,8716,8726,66560,99473
2025-05-29 19:14:09.494,85912,8722,8707,66574,99484
2025-05-29 19:14:09.496,85921,8732,8715,66595,99498
2025-05-29 19:14:09.503,85929,8739,8727,66592,99496
2025-05-29 19:14:09.512,85937,8747,8733,66594,99496
2025-05-29 19:14:09.523,85953,8733,8740,66598,99530
2025-05-29 19:14:09.531,85974,8748,8735,66602,99534
2025-05-29 19:14:09.566,85952,8750,8735,66607,99544
2025-05-29 19:14:09.568,85958,8765,8741,66616,99531
2025-05-29 19:14:09.571,85980,8756,8745,66627,99542
2025-05-29 19:14:09.575,85994,8759,8768,66622,99569
2025-05-29 19:14:09.583,85992,8772,8755,66623,99577
2025-05-29 19:14:09.595,85991,8775,8751,66627,99582
2025-05-29 19:14:09.604,85998,8779,8762,66621,99585
2025-05-29 19:14:09.643,86010,8779,8778,66646,99561
2025-05-29 19:14:09.645,86020,8773,8778,66631,99592
2025-05-29 19:14:09.647,86038,8792,8781,66621,99596
2025-05-29 19:14:09.650,86049,8800,8772,66639,99598
2025-05-29 19:14:09.655,86043,8800,8772,66643,99625
2025-05-29 19:14:09.663,86047,8805,8774,66653,99622
2025-05-29 19:14:09.675,86060,8804,8774,66651,99624
2025-05-29 19:14:09.683,86032,8802,8773,66648,99619
2025-05-29 19:14:09.717,86016,8786,8761,66629,99592
2025-05-29 19:14:09.719,85986,8765,8746,66634,99578
2025-05-29 19:14:09.722,85962,8742,8729,66614,99554
2025-05-29 19:14:09.724,85941,8698,8700,66687,99520
2025-05-29 19:14:09.735,85925,8681,8684,66653,99508
2025-05-29 19:14:09.744,85898,8652,8665,66620,99442
2025-05-29 19:14:09.755,85874,8627,8651,66596,99413
2025-05-29 19:14:09.763,85873,8608,8651,66568,99428
2025-05-29 19:14:09.789,85856,8598,8622,66563,99406
2025-05-29 19:14:09.791,85845,8586,8607,66559,99388
2025-05-29 19:14:09.792,85845,8586,8607,66559,99388
2025-05-29 19:14:09.795,85807,8564,8595,66559,99352
2025-05-29 19:14:09.803,85813,8555,8598,66557,99332
2025-05-29 19:14:09.815,85814,8542,8584,66544,99343
2025-05-29 19:14:09.822,85809,8546,8595,66535,99353
2025-05-29 19:14:09.836,85795,8547,8583,66542,99310
2025-05-29 19:14:09.860,85786,8540,8588,66533,99327
2025-05-29 19:14:09.862,85784,8545,8581,66533,99302
2025-05-29 19:14:09.864,85777,8524,8588,66547,99291
2025-05-29 19:14:09.875,85781,8533,8590,66516,99304
2025-05-29 19:14:09.883,85783,8538,8576,66511,99299
2025-05-29 19:14:09.896,85762,8536,8586,66528,99308
2025-05-29 19:14:09.904,85788,8545,8594,66524,99289
2025-05-29 19:14:09.935,85790,8534,8606,66539,99298
2025-05-29 19:14:09.937,85800,8543,8603,66519,99306
2025-05-29 19:14:09.939,85789,8546,8596,66532,99305
2025-05-29 19:14:09.943,85774,8555,8600,66521,99301
2025-05-29 19:14:09.954,85781,8556,8600,66539,99308
2025-05-29 19:14:09.963,85778,8543,8613,66524,99294
2025-05-29 19:14:09.975,85771,8544,8618,66502,99290
