Timestamp,PPG1,PPG2,PPG3,PPG4,PPG5
2025-05-27 12:54:18.418,108959,11361,11359,56582,97229
2025-05-27 12:54:18.623,108958,11375,11361,56593,97246
2025-05-27 12:54:18.931,108962,11372,11365,56618,97262
2025-05-27 12:54:18.934,108979,11377,11373,56644,97274
2025-05-27 12:54:18.937,109007,11393,11379,56664,97305
2025-05-27 12:54:18.942,109007,11393,11379,56664,97305
2025-05-27 12:54:18.943,109026,11413,11407,56734,97401
2025-05-27 12:54:18.945,109043,11419,11417,56770,97455
2025-05-27 12:54:18.946,109043,11419,11417,56770,97455
2025-05-27 12:54:18.947,109068,11433,11422,56800,97505
2025-05-27 12:54:18.949,109068,11453,11433,56827,97561
2025-05-27 12:54:18.950,109067,11449,11438,56832,97597
2025-05-27 12:54:18.952,109056,11448,11432,56821,97617
2025-05-27 12:54:18.954,109045,11440,11418,56809,97623
2025-05-27 12:54:18.957,109014,11426,11410,56748,97569
2025-05-27 12:54:18.959,108978,11400,11395,56706,97501
2025-05-27 12:54:18.961,108955,11370,11365,56651,97405
2025-05-27 12:54:18.962,108905,11352,11344,56611,97320
2025-05-27 12:54:18.963,108884,11323,11321,56561,97224
2025-05-27 12:54:18.964,108864,11307,11313,56528,97143
2025-05-27 12:54:18.965,108862,11290,11304,56514,97065
2025-05-27 12:54:18.966,108868,11283,11289,56504,97034
2025-05-27 12:54:18.968,108873,11283,11285,56501,97012
2025-05-27 12:54:18.969,108863,11275,11280,56509,96994
2025-05-27 12:54:18.970,108871,11285,11275,56504,96967
2025-05-27 12:54:18.971,108862,11283,11275,56507,96983
2025-05-27 12:54:18.972,108862,11283,11275,56507,96983
2025-05-27 12:54:18.973,108867,11288,11269,56528,96985
2025-05-27 12:54:18.974,108847,11278,11265,56524,96994
2025-05-27 12:54:18.989,108845,11283,11273,56535,97010
2025-05-27 12:54:18.990,108838,11295,11268,56549,97020
2025-05-27 12:54:18.991,108848,11290,11268,56560,97026
2025-05-27 12:54:18.992,108837,11295,11268,56557,97033
2025-05-27 12:54:18.993,108850,11296,11277,56563,97039
2025-05-27 12:54:18.994,108838,11300,11271,56567,97046
2025-05-27 12:54:18.995,108848,11303,11280,56570,97060
2025-05-27 12:54:18.997,108830,11308,11281,56582,97052
2025-05-27 12:54:18.998,108846,11301,11278,56582,97084
2025-05-27 12:54:18.998,108846,11296,11283,56595,97093
2025-05-27 12:54:18.999,108854,11306,11292,56613,97105
2025-05-27 12:54:19.000,108852,11310,11288,56621,97124
2025-05-27 12:54:19.000,108858,11315,11294,56636,97155
2025-05-27 12:54:19.001,108846,11320,11298,56625,97173
2025-05-27 12:54:19.002,108869,11320,11293,56622,97183
2025-05-27 12:54:19.003,108856,11321,11292,56621,97166
2025-05-27 12:54:19.004,108833,11313,11289,56594,97168
2025-05-27 12:54:19.004,108835,11300,11277,56603,97160
2025-05-27 12:54:19.005,108823,11291,11276,56590,97121
2025-05-27 12:54:19.006,108813,11288,11268,56561,97096
2025-05-27 12:54:19.007,108782,11283,11262,56559,97071
2025-05-27 12:54:19.007,108782,11269,11264,56539,97053
2025-05-27 12:54:19.008,108761,11265,11254,56526,97012
2025-05-27 12:54:19.009,108758,11264,11248,56507,96996
2025-05-27 12:54:19.009,108734,11260,11251,56499,96976
2025-05-27 12:54:19.010,108726,11257,11241,56478,96950
2025-05-27 12:54:19.012,108715,11245,11239,56463,96918
2025-05-27 12:54:19.012,108695,11250,11230,56440,96891
2025-05-27 12:54:19.013,108698,11242,11232,56440,96869
2025-05-27 12:54:19.014,108679,11241,11227,56430,96845
2025-05-27 12:54:19.014,108686,11240,11224,56423,96847
2025-05-27 12:54:19.015,108669,11239,11226,56437,96821
2025-05-27 12:54:19.015,108687,11229,11222,56412,96810
2025-05-27 12:54:19.016,108668,11243,11223,56421,96804
2025-05-27 12:54:19.016,108657,11221,11224,56418,96777
2025-05-27 12:54:19.017,108670,11230,11217,56397,96767
2025-05-27 12:54:19.018,108666,11234,11215,56408,96767
2025-05-27 12:54:19.018,108683,11239,11222,56420,96757
2025-05-27 12:54:19.019,108688,11241,11223,56433,96766
2025-05-27 12:54:19.020,108705,11245,11235,56440,96780
2025-05-27 12:54:19.021,108709,11252,11229,56457,96792
2025-05-27 12:54:19.022,108733,11267,11239,56458,96818
2025-05-27 12:54:19.023,108730,11257,11250,56477,96834
2025-05-27 12:54:19.024,108714,11270,11249,56486,96868
2025-05-27 12:54:19.025,108718,11288,11264,56490,96869
2025-05-27 12:54:19.026,108736,11283,11269,56498,96889
2025-05-27 12:54:19.027,108722,11282,11265,56508,96892
2025-05-27 12:54:19.038,108728,11291,11263,56499,96901
2025-05-27 12:54:19.053,108722,11300,11267,56512,96925
2025-05-27 12:54:19.058,108714,11293,11271,56485,96926
2025-05-27 12:54:19.065,108696,11278,11267,56494,96900
2025-05-27 12:54:19.077,108694,11281,11261,56473,96882
2025-05-27 12:54:19.086,108689,11273,11259,56452,96851
2025-05-27 12:54:19.097,108686,11268,11253,56428,96826
2025-05-27 12:54:19.116,108678,11260,11251,56416,96809
2025-05-27 12:54:19.118,108660,11256,11247,56415,96777
2025-05-27 12:54:19.125,108665,11261,11236,56401,96759
2025-05-27 12:54:19.137,108658,11242,11239,56417,96756
2025-05-27 12:54:19.145,108668,11250,11236,56416,96760
2025-05-27 12:54:19.158,108680,11246,11236,56403,96755
2025-05-27 12:54:19.165,108673,11248,11237,56418,96753
2025-05-27 12:54:19.179,108697,11249,11237,56429,96778
2025-05-27 12:54:19.186,108686,11249,11227,56430,96770
2025-05-27 12:54:19.197,108676,11252,11235,56459,96803
2025-05-27 12:54:19.205,108697,11245,11241,56459,96821
2025-05-27 12:54:19.217,108699,11247,11231,56461,96816
2025-05-27 12:54:19.225,108709,11245,11231,56469,96842
2025-05-27 12:54:19.242,108707,11253,11228,56477,96856
2025-05-27 12:54:19.244,108688,11245,11232,56470,96860
2025-05-27 12:54:19.257,108701,11246,11226,56465,96863
2025-05-27 12:54:19.265,108696,11239,11216,56457,96844
2025-05-27 12:54:19.278,108676,11238,11215,56444,96848
2025-05-27 12:54:19.289,108667,11219,11206,56438,96814
2025-05-27 12:54:19.305,108647,11224,11206,56423,96816
2025-05-27 12:54:19.309,108655,11206,11203,56401,96789
2025-05-27 12:54:19.317,108626,11206,11200,56402,96769
2025-05-27 12:54:19.329,108646,11198,11189,56376,96743
2025-05-27 12:54:19.337,108619,11193,11197,56370,96720
2025-05-27 12:54:19.349,108623,11186,11185,56367,96699
2025-05-27 12:54:19.371,108616,11181,11184,56344,96681
2025-05-27 12:54:19.372,108623,11173,11188,56339,96660
2025-05-27 12:54:19.377,108602,11173,11183,56332,96650
2025-05-27 12:54:19.389,108594,11169,11172,56311,96620
2025-05-27 12:54:19.397,108597,11165,11160,56317,96601
2025-05-27 12:54:19.409,108587,11163,11164,56292,96590
2025-05-27 12:54:19.417,108591,11150,11157,56277,96563
2025-05-27 12:54:19.435,108566,11142,11143,56262,96522
2025-05-27 12:54:19.437,108566,11138,11142,56236,96498
2025-05-27 12:54:19.448,108541,11133,11132,56209,96461
2025-05-27 12:54:19.457,108539,11131,11135,56206,96415
2025-05-27 12:54:19.469,108532,11111,11122,56189,96396
2025-05-27 12:54:19.477,108544,11111,11117,56185,96366
2025-05-27 12:54:19.515,108537,11113,11120,56161,96353
2025-05-27 12:54:19.517,108548,11106,11124,56147,96312
2025-05-27 12:54:19.518,108557,11109,11127,56157,96311
2025-05-27 12:54:19.519,108541,11104,11125,56142,96277
2025-05-27 12:54:19.529,108566,11107,11126,56147,96278
2025-05-27 12:54:19.541,108566,11111,11118,56141,96261
2025-05-27 12:54:19.545,108566,11111,11118,56141,96261
2025-05-27 12:54:19.549,108572,11111,11122,56150,96263
2025-05-27 12:54:19.561,108572,11125,11127,56141,96270
2025-05-27 12:54:19.754,108577,11117,11122,56154,96267
2025-05-27 12:54:19.755,108587,11128,11131,56157,96258
2025-05-27 12:54:19.756,108582,11117,11128,56156,96267
2025-05-27 12:54:19.757,108597,11126,11138,56150,96264
2025-05-27 12:54:19.758,108597,11132,11130,56137,96257
2025-05-27 12:54:19.758,108597,11133,11134,56145,96258
2025-05-27 12:54:19.759,108598,11120,11137,56143,96249
2025-05-27 12:54:19.760,108587,11134,11132,56159,96234
2025-05-27 12:54:19.761,108588,11136,11140,56147,96246
2025-05-27 12:54:19.761,108611,11142,11133,56153,96258
2025-05-27 12:54:19.762,108599,11154,11147,56168,96253
2025-05-27 12:54:19.763,108608,11142,11143,56166,96257
2025-05-27 12:54:19.763,108620,11149,11154,56171,96282
2025-05-27 12:54:19.764,108623,11159,11150,56173,96271
2025-05-27 12:54:19.765,108632,11160,11164,56176,96290
2025-05-27 12:54:19.766,108634,11165,11169,56179,96311
2025-05-27 12:54:19.766,108641,11169,11160,56181,96298
2025-05-27 12:54:19.767,108644,11179,11175,56193,96302
2025-05-27 12:54:19.768,108651,11169,11178,56208,96321
2025-05-27 12:54:19.769,108663,11193,11179,56204,96339
2025-05-27 12:54:19.770,108671,11191,11190,56219,96339
2025-05-27 12:54:19.780,108658,11191,11195,56223,96363
2025-05-27 12:54:19.788,108678,11191,11177,56229,96378
2025-05-27 12:54:19.801,108666,11200,11193,56236,96379
2025-05-27 12:54:19.816,108680,11201,11190,56233,96394
2025-05-27 12:54:19.821,108702,11197,11200,56249,96407
2025-05-27 12:54:19.833,108679,11205,11198,56257,96438
2025-05-27 12:54:19.841,108679,11205,11201,56265,96447
2025-05-27 12:54:19.853,108664,11198,11197,56268,96449
2025-05-27 12:54:19.861,108664,11189,11191,56254,96449
2025-05-27 12:54:19.878,108635,11190,11179,56245,96439
2025-05-27 12:54:19.881,108633,11174,11163,56241,96428
2025-05-27 12:54:19.893,108612,11167,11163,56225,96409
2025-05-27 12:54:19.900,108611,11159,11166,56203,96388
2025-05-27 12:54:19.912,108599,11142,11145,56190,96357
2025-05-27 12:54:19.921,108578,11140,11139,56187,96347
2025-05-27 12:54:19.959,108562,11129,11135,56166,96324
2025-05-27 12:54:19.961,108575,11118,11138,56157,96312
2025-05-27 12:54:19.963,108551,11122,11128,56142,96276
2025-05-27 12:54:19.964,108558,11118,11121,56138,96259
2025-05-27 12:54:19.972,108548,11106,11118,56126,96245
2025-05-27 12:54:19.980,108533,11098,11118,56125,96240
2025-05-27 12:54:19.992,108526,11103,11111,56107,96222
2025-05-27 12:54:20.001,108528,11094,11108,56092,96191
2025-05-27 12:54:20.028,108514,11083,11104,56089,96164
2025-05-27 12:54:20.030,108515,11084,11108,56070,96145
2025-05-27 12:54:20.033,108484,11076,11099,56062,96122
2025-05-27 12:54:20.041,108495,11078,11096,56057,96106
2025-05-27 12:54:20.052,108496,11063,11086,56045,96096
2025-05-27 12:54:20.061,108511,11066,11094,56053,96067
2025-05-27 12:54:20.073,108510,11064,11087,56050,96086
2025-05-27 12:54:20.102,108513,11067,11083,56039,96069
2025-05-27 12:54:20.104,108519,11072,11097,56057,96072
2025-05-27 12:54:20.106,108525,11079,11094,56063,96086
2025-05-27 12:54:20.113,108536,11070,11102,56054,96081
2025-05-27 12:54:20.125,108529,11079,11100,56050,96084
2025-05-27 12:54:20.132,108537,11084,11099,56061,96070
2025-05-27 12:54:20.145,108543,11080,11101,56056,96082
2025-05-27 12:54:20.170,108556,11085,11106,56063,96099
2025-05-27 12:54:20.171,108530,11086,11104,56060,96093
2025-05-27 12:54:20.172,108534,11084,11102,56078,96091
2025-05-27 12:54:20.185,108538,11089,11109,56076,96100
2025-05-27 12:54:20.192,108547,11093,11110,56083,96105
2025-05-27 12:54:20.205,108549,11097,11112,56081,96113
2025-05-27 12:54:20.213,108533,11101,11106,56083,96130
2025-05-27 12:54:20.404,108531,11095,11117,56076,96126
2025-05-27 12:54:20.406,108519,11101,11114,56079,96127
2025-05-27 12:54:20.407,108537,11094,11116,56073,96115
2025-05-27 12:54:20.408,108533,11096,11116,56076,96124
2025-05-27 12:54:20.409,108531,11091,11117,56085,96116
2025-05-27 12:54:20.410,108534,11095,11122,56070,96117
2025-05-27 12:54:20.410,108536,11101,11119,56070,96120
2025-05-27 12:54:20.411,108531,11103,11120,56081,96110
2025-05-27 12:54:20.412,108524,11101,11124,56065,96127
2025-05-27 12:54:20.412,108531,11099,11117,56071,96107
2025-05-27 12:54:20.413,108527,11095,11121,56058,96117
2025-05-27 12:54:20.414,108532,11082,11120,56055,96083
2025-05-27 12:54:20.414,108535,11091,11129,56060,96080
2025-05-27 12:54:20.415,108523,11094,11120,56049,96071
2025-05-27 12:54:20.416,108540,11095,11114,56058,96074
2025-05-27 12:54:20.416,108549,11097,11124,56054,96088
2025-05-27 12:54:20.417,108543,11095,11121,56068,96075
2025-05-27 12:54:20.417,108527,11099,11136,56052,96084
2025-05-27 12:54:20.418,108545,11107,11132,56054,96089
2025-05-27 12:54:20.419,108540,11110,11125,56058,96074
2025-05-27 12:54:20.424,108546,11109,11139,56057,96068
2025-05-27 12:54:20.437,108545,11112,11146,56060,96100
2025-05-27 12:54:20.444,108548,11109,11140,56065,96097
2025-05-27 12:54:20.561,108546,11118,11146,56058,96091
2025-05-27 12:54:20.562,108569,11127,11141,56072,96100
2025-05-27 12:54:20.563,108556,11110,11151,56075,96113
2025-05-27 12:54:20.564,108557,11120,11155,56064,96106
2025-05-27 12:54:20.564,108546,11121,11154,56053,96097
2025-05-27 12:54:20.565,108549,11122,11158,56066,96102
2025-05-27 12:54:20.565,108539,11115,11155,56053,96097
2025-05-27 12:54:20.566,108543,11120,11150,56059,96075
2025-05-27 12:54:20.567,108542,11123,11152,56057,96093
2025-05-27 12:54:20.567,108559,11111,11154,56062,96078
2025-05-27 12:54:20.568,108545,11116,11150,56064,96089
2025-05-27 12:54:20.569,108540,11115,11151,56059,96085
2025-05-27 12:54:20.576,108531,11113,11147,56073,96094
2025-05-27 12:54:20.584,108540,11105,11139,56060,96070
2025-05-27 12:54:20.597,108527,11103,11140,56055,96089
2025-05-27 12:54:20.608,108526,11098,11132,56058,96085
2025-05-27 12:54:20.621,108530,11093,11141,56063,96071
2025-05-27 12:54:20.629,108526,11093,11121,56064,96110
2025-05-27 12:54:20.636,108513,11091,11137,56063,96103
2025-05-27 12:54:20.648,108511,11075,11137,56057,96099
2025-05-27 12:54:20.657,108507,11092,11122,56066,96097
2025-05-27 12:54:20.668,108512,11075,11132,56063,96097
2025-05-27 12:54:20.683,108513,11085,11123,56056,96111
2025-05-27 12:54:20.688,108525,11077,11114,56059,96110
2025-05-27 12:54:20.696,108505,11076,11125,56059,96109
2025-05-27 12:54:20.708,108502,11080,11125,56068,96133
2025-05-27 12:54:20.717,108491,11073,11122,56045,96130
2025-05-27 12:54:20.728,108486,11071,11123,56045,96123
2025-05-27 12:54:20.746,108490,11065,11130,56041,96108
2025-05-27 12:54:20.748,108506,11066,11117,56050,96094
2025-05-27 12:54:20.752,108506,11066,11117,56050,96094
2025-05-27 12:54:20.756,108481,11064,11117,56009,96083
2025-05-27 12:54:20.768,108474,11058,11124,56017,96093
2025-05-27 12:54:20.776,108480,11063,11126,56016,96080
2025-05-27 12:54:20.788,108456,11050,11119,56010,96076
2025-05-27 12:54:20.808,108461,11063,11120,56016,96058
2025-05-27 12:54:20.810,108461,11048,11113,56006,96053
2025-05-27 12:54:20.816,108436,11042,11105,55994,96041
2025-05-27 12:54:20.828,108455,11046,11107,55993,96035
2025-05-27 12:54:20.836,108453,11040,11108,55987,96023
2025-05-27 12:54:20.848,108429,11039,11104,55983,96026
2025-05-27 12:54:20.855,108437,11035,11099,55971,96005
2025-05-27 12:54:20.871,108437,11038,11102,55975,96005
2025-05-27 12:54:20.876,108417,11035,11115,55978,96009
2025-05-27 12:54:20.888,108420,11025,11113,55970,96012
2025-05-27 12:54:20.901,108421,11042,11103,55986,96009
2025-05-27 12:54:20.908,108420,11027,11106,55969,96015
2025-05-27 12:54:20.920,108415,11039,11105,55968,95991
2025-05-27 12:54:20.934,108403,11034,11119,55980,95989
2025-05-27 12:54:20.940,108398,11045,11116,55961,95991
2025-05-27 12:54:20.948,108400,11029,11091,55965,95989
2025-05-27 12:54:20.960,108413,11035,11104,55959,95972
2025-05-27 12:54:20.967,108409,11028,11105,55956,95984
2025-05-27 12:54:20.980,108414,11037,11112,55966,95986
2025-05-27 12:54:20.996,108409,11047,11113,55960,95995
2025-05-27 12:54:21.000,108395,11041,11121,55962,95992
2025-05-27 12:54:21.008,108397,11038,11117,55975,95995
2025-05-27 12:54:21.020,108394,11039,11119,55965,96004
2025-05-27 12:54:21.028,108396,11033,11120,55953,95993
2025-05-27 12:54:21.040,108404,11035,11116,55955,95985
2025-05-27 12:54:21.059,108387,11036,11115,55966,95979
2025-05-27 12:54:21.060,108397,11031,11116,55943,95977
2025-05-27 12:54:21.068,108392,11039,11126,55945,95965
2025-05-27 12:54:21.080,108395,11036,11128,55949,95962
2025-05-27 12:54:21.088,108380,11038,11124,55955,95985
2025-05-27 12:54:21.100,108402,11049,11132,55959,95986
2025-05-27 12:54:21.122,108400,11042,11128,55959,95984
2025-05-27 12:54:21.123,108391,11043,11142,55964,95990
2025-05-27 12:54:21.133,108399,11058,11131,55963,96010
2025-05-27 12:54:21.140,108406,11059,11141,55962,96008
2025-05-27 12:54:21.152,108396,11050,11148,55950,96015
2025-05-27 12:54:21.160,108404,11060,11144,55976,96019
2025-05-27 12:54:21.183,108409,11050,11146,55967,95993
2025-05-27 12:54:21.184,108410,11060,11143,55967,96022
2025-05-27 12:54:21.192,108400,11065,11142,55974,96010
2025-05-27 12:54:21.200,108403,11059,11146,55960,96022
2025-05-27 12:54:21.212,108384,11063,11155,55957,96013
2025-05-27 12:54:21.220,108396,11056,11152,55957,95998
2025-05-27 12:54:21.232,108384,11058,11142,55956,96004
2025-05-27 12:54:21.247,108375,11060,11144,55958,95996
2025-05-27 12:54:21.252,108373,11048,11144,55960,96003
2025-05-27 12:54:21.261,108377,11055,11136,55949,96009
2025-05-27 12:54:21.273,108374,11044,11136,55954,96006
2025-05-27 12:54:21.280,108394,11041,11138,55952,95992
2025-05-27 12:54:21.292,108376,11041,11139,55951,96000
2025-05-27 12:54:21.309,108368,11030,11137,55945,95993
2025-05-27 12:54:21.312,108360,11035,11136,55940,95986
2025-05-27 12:54:21.321,108364,11022,11135,55938,95980
2025-05-27 12:54:21.331,108362,11023,11117,55938,95979
2025-05-27 12:54:21.340,108340,11018,11129,55938,95969
2025-05-27 12:54:21.353,108352,11015,11118,55907,95968
2025-05-27 12:54:21.372,108341,11015,11113,55932,95978
2025-05-27 12:54:21.373,108354,11002,11118,55920,95957
2025-05-27 12:54:21.380,108325,11000,11109,55925,95951
2025-05-27 12:54:21.392,108352,11003,11109,55914,95953
2025-05-27 12:54:21.404,108328,10994,11108,55922,95947
2025-05-27 12:54:21.412,108337,10994,11108,55911,95968
2025-05-27 12:54:21.434,108321,10998,11103,55913,95950
2025-05-27 12:54:21.435,108324,10990,11103,55894,95956
2025-05-27 12:54:21.444,108307,10989,11108,55905,95953
2025-05-27 12:54:21.451,108310,10987,11102,55905,95940
2025-05-27 12:54:21.464,108307,10986,11102,55909,95964
2025-05-27 12:54:21.472,108295,10974,11106,55897,95940
2025-05-27 12:54:21.498,108290,10982,11095,55895,95943
2025-05-27 12:54:21.499,108289,10979,11097,55890,95931
2025-05-27 12:54:21.503,108292,10990,11103,55886,95928
2025-05-27 12:54:21.512,108263,10978,11095,55877,95932
2025-05-27 12:54:21.524,108286,10981,11104,55882,95939
2025-05-27 12:54:21.532,108256,10972,11091,55878,95927
2025-05-27 12:54:21.544,108259,10971,11094,55867,95904
2025-05-27 12:54:21.561,108251,10970,11105,55867,95904
2025-05-27 12:54:21.564,108257,10975,11094,55869,95900
2025-05-27 12:54:21.571,108250,10963,11090,55862,95886
2025-05-27 12:54:21.583,108253,10969,11089,55851,95887
2025-05-27 12:54:21.592,108252,10967,11086,55863,95897
2025-05-27 12:54:21.604,108248,10962,11087,55851,95894
2025-05-27 12:54:21.624,108285,10955,11088,55853,95894
2025-05-27 12:54:21.625,108246,10966,11086,55852,95871
2025-05-27 12:54:21.633,108251,10962,11087,55853,95885
2025-05-27 12:54:21.644,108252,10964,11098,55845,95891
2025-05-27 12:54:21.652,108242,10969,11090,55848,95885
2025-05-27 12:54:21.663,108256,10956,11099,55852,95881
2025-05-27 12:54:21.686,108241,10965,11101,55838,95890
2025-05-27 12:54:21.687,108233,10950,11089,55832,95877
2025-05-27 12:54:21.696,108230,10959,11087,55844,95882
2025-05-27 12:54:21.704,108243,10957,11088,55846,95861
2025-05-27 12:54:21.715,108239,10967,11093,55835,95876
2025-05-27 12:54:21.724,108253,10969,11093,55848,95877
2025-05-27 12:54:21.750,108234,10965,11100,55833,95880
2025-05-27 12:54:21.751,108236,10961,11087,55834,95872
2025-05-27 12:54:21.756,108215,10955,11103,55822,95860
2025-05-27 12:54:21.759,108215,10955,11103,55822,95860
2025-05-27 12:54:21.764,108217,10947,11088,55820,95847
2025-05-27 12:54:21.776,108228,10965,11099,55814,95849
2025-05-27 12:54:21.784,108240,10962,11096,55824,95836
2025-05-27 12:54:21.796,108243,10966,11094,55830,95836
2025-05-27 12:54:21.812,108210,10972,11093,55831,95861
2025-05-27 12:54:21.815,108206,10967,11108,55827,95853
2025-05-27 12:54:21.824,108228,10988,11105,55825,95838
2025-05-27 12:54:21.836,108218,10977,11116,55842,95858
2025-05-27 12:54:21.844,108217,10991,11111,55837,95870
2025-05-27 12:54:21.855,108229,10978,11119,55839,95866
2025-05-27 12:54:21.875,108226,10994,11119,55843,95884
2025-05-27 12:54:21.876,108240,10982,11129,55855,95875
2025-05-27 12:54:21.884,108232,11010,11127,55861,95875
2025-05-27 12:54:21.895,108241,10985,11118,55849,95896
2025-05-27 12:54:21.904,108240,11013,11126,55848,95899
2025-05-27 12:54:21.916,108238,10988,11122,55844,95883
2025-05-27 12:54:21.937,108232,10997,11124,55835,95881
2025-05-27 12:54:21.939,108218,10985,11130,55835,95888
2025-05-27 12:54:21.948,108214,10992,11139,55827,95877
2025-05-27 12:54:21.956,108221,10988,11131,55830,95856
2025-05-27 12:54:21.969,108199,10970,11130,55837,95854
2025-05-27 12:54:21.976,108233,10988,11124,55836,95840
2025-05-27 12:54:21.987,108211,10961,11125,55825,95847
2025-05-27 12:54:22.001,108215,10980,11118,55832,95837
2025-05-27 12:54:22.008,108215,10964,11119,55838,95848
2025-05-27 12:54:22.016,108232,10963,11118,55850,95852
2025-05-27 12:54:22.028,108217,10953,11105,55830,95857
2025-05-27 12:54:22.035,108224,10953,11105,55843,95861
2025-05-27 12:54:22.048,108219,10957,11111,55842,95871
2025-05-27 12:54:22.063,108217,10965,11111,55855,95884
2025-05-27 12:54:22.068,108213,10964,11118,55848,95899
2025-05-27 12:54:22.076,108210,10956,11117,55857,95893
2025-05-27 12:54:22.088,108199,10961,11113,55862,95900
2025-05-27 12:54:22.096,108207,10950,11112,55878,95925
2025-05-27 12:54:22.108,108199,10958,11107,55869,95925
2025-05-27 12:54:22.125,108207,10954,11106,55876,95925
2025-05-27 12:54:22.128,108207,10958,11109,55857,95923
2025-05-27 12:54:22.135,108224,10960,11099,55854,95936
2025-05-27 12:54:22.147,108206,10954,11117,55856,95950
2025-05-27 12:54:22.160,108232,10959,11124,55848,95937
2025-05-27 12:54:22.167,108206,10939,11102,55835,95921
2025-05-27 12:54:22.188,108180,10956,11099,55823,95908
2025-05-27 12:54:22.189,108175,10952,11102,55813,95907
2025-05-27 12:54:22.199,108133,10941,11093,55793,95859
2025-05-27 12:54:22.208,108128,10935,11081,55778,95853
2025-05-27 12:54:22.219,108108,10921,11081,55759,95827
2025-05-27 12:54:22.227,108099,10903,11067,55756,95797
2025-05-27 12:54:22.250,108090,10918,11068,55753,95794
2025-05-27 12:54:22.251,108095,10903,11060,55741,95773
2025-05-27 12:54:22.259,108111,10904,11062,55751,95770
2025-05-27 12:54:22.267,108118,10909,11067,55746,95757
2025-05-27 12:54:22.280,108139,10908,11074,55749,95746
2025-05-27 12:54:22.287,108166,10896,11073,55754,95745
2025-05-27 12:54:22.312,108149,10905,11079,55746,95755
2025-05-27 12:54:22.313,108159,10903,11082,55744,95756
2025-05-27 12:54:22.320,108162,10905,11074,55751,95764
2025-05-27 12:54:22.327,108140,10903,11084,55752,95766
2025-05-27 12:54:22.340,108125,10901,11074,55740,95759
2025-05-27 12:54:22.347,108105,10899,11088,55741,95761
2025-05-27 12:54:22.360,108111,10905,11085,55751,95745
2025-05-27 12:54:22.375,108106,10907,11094,55750,95758
2025-05-27 12:54:22.379,108101,10918,11084,55757,95770
2025-05-27 12:54:22.387,108128,10928,11112,55784,95799
2025-05-27 12:54:22.399,108142,10937,11104,55804,95822
2025-05-27 12:54:22.408,108164,10942,11127,55818,95853
2025-05-27 12:54:22.419,108180,10949,11117,55849,95882
2025-05-27 12:54:22.437,108183,10951,11133,55863,95927
2025-05-27 12:54:22.440,108216,10958,11131,55882,95957
2025-05-27 12:54:22.451,108204,10957,11118,55882,95968
2025-05-27 12:54:22.460,108205,10972,11137,55879,96014
2025-05-27 12:54:22.472,108194,10976,11125,55892,96016
2025-05-27 12:54:22.479,108188,10970,11150,55890,96023
2025-05-27 12:54:22.500,108187,10973,11133,55888,96038
2025-05-27 12:54:22.502,108189,10984,11136,55872,96024
2025-05-27 12:54:22.511,108168,10970,11126,55863,96024
2025-05-27 12:54:22.519,108185,10973,11144,55865,96018
2025-05-27 12:54:22.532,108182,10965,11133,55863,96013
2025-05-27 12:54:22.540,108188,10971,11128,55856,96015
2025-05-27 12:54:22.562,108181,10967,11131,55850,96001
2025-05-27 12:54:22.563,108193,10966,11131,55846,96005
2025-05-27 12:54:22.572,108179,10961,11134,55843,95987
2025-05-27 12:54:22.579,108174,10960,11121,55836,95981
2025-05-27 12:54:22.591,108162,10952,11132,55820,95949
2025-05-27 12:54:22.599,108157,10954,11114,55817,95944
2025-05-27 12:54:22.611,108142,10946,11132,55792,95925
2025-05-27 12:54:22.626,108144,10951,11134,55787,95900
2025-05-27 12:54:22.632,108128,10936,11135,55797,95898
2025-05-27 12:54:22.640,108131,10945,11134,55784,95874
2025-05-27 12:54:22.651,108134,10946,11128,55788,95884
2025-05-27 12:54:22.660,108127,10949,11150,55789,95868
2025-05-27 12:54:22.671,108149,10945,11129,55791,95857
2025-05-27 12:54:22.688,108128,10946,11134,55791,95871
2025-05-27 12:54:22.691,108135,10947,11134,55781,95859
2025-05-27 12:54:22.704,108139,10956,11138,55778,95864
2025-05-27 12:54:22.711,108132,10939,11126,55785,95857
2025-05-27 12:54:22.723,108121,10927,11135,55772,95839
2025-05-27 12:54:22.731,108120,10927,11120,55750,95818
2025-05-27 12:54:22.751,108106,10911,11112,55759,95808
2025-05-27 12:54:22.752,108103,10912,11105,55749,95781
2025-05-27 12:54:22.764,108111,10916,11104,55747,95798
2025-05-27 12:54:22.771,108118,10897,11096,55749,95766
2025-05-27 12:54:22.783,108107,10897,11100,55758,95762
2025-05-27 12:54:22.792,108096,10894,11104,55756,95772
2025-05-27 12:54:22.814,108111,10914,11098,55753,95785
2025-05-27 12:54:22.815,108114,10907,11100,55754,95793
2025-05-27 12:54:22.823,108110,10912,11103,55768,95783
2025-05-27 12:54:22.831,108116,10901,11095,55749,95785
2025-05-27 12:54:22.843,108116,10894,11098,55762,95806
2025-05-27 12:54:22.852,108095,10904,11097,55755,95791
2025-05-27 12:54:22.876,108110,10901,11104,55752,95799
2025-05-27 12:54:22.877,108091,10901,11094,55736,95775
2025-05-27 12:54:22.884,108091,10902,11100,55729,95769
2025-05-27 12:54:22.891,108084,10900,11096,55726,95766
2025-05-27 12:54:22.904,108086,10897,11096,55726,95751
2025-05-27 12:54:22.911,108078,10903,11099,55742,95756
2025-05-27 12:54:22.923,108098,10904,11104,55743,95751
2025-05-27 12:54:22.939,108083,10906,11107,55753,95777
2025-05-27 12:54:22.943,108094,10907,11106,55764,95774
2025-05-27 12:54:22.955,108100,10917,11106,55766,95798
2025-05-27 12:54:22.963,108100,10907,11119,55766,95806
2025-05-27 12:54:22.967,108100,10907,11119,55766,95806
2025-05-27 12:54:22.976,108106,10928,11111,55777,95816
2025-05-27 12:54:22.983,108109,10913,11116,55768,95816
2025-05-27 12:54:23.001,108107,10924,11117,55767,95828
2025-05-27 12:54:23.003,108099,10921,11117,55774,95825
2025-05-27 12:54:23.016,108096,10920,11127,55770,95835
2025-05-27 12:54:23.023,108098,10927,11119,55786,95845
2025-05-27 12:54:23.035,108103,10927,11130,55773,95845
2025-05-27 12:54:23.043,108106,10921,11124,55771,95847
2025-05-27 12:54:23.064,108106,10921,11123,55766,95833
2025-05-27 12:54:23.065,108108,10917,11115,55763,95829
2025-05-27 12:54:23.075,108101,10915,11114,55750,95829
2025-05-27 12:54:23.083,108084,10913,11127,55742,95810
2025-05-27 12:54:23.095,108094,10909,11124,55745,95807
2025-05-27 12:54:23.103,108079,10905,11117,55738,95789
2025-05-27 12:54:23.126,108084,10898,11111,55718,95777
2025-05-27 12:54:23.127,108069,10893,11116,55686,95749
2025-05-27 12:54:23.135,108076,10897,11115,55725,95738
2025-05-27 12:54:23.143,108082,10893,11114,55696,95736
2025-05-27 12:54:23.155,108083,10897,11114,55693,95717
2025-05-27 12:54:23.164,108077,10897,11117,55705,95719
2025-05-27 12:54:23.175,108072,10892,11117,55690,95701
2025-05-27 12:54:23.189,108084,10900,11111,55695,95697
2025-05-27 12:54:23.195,108087,10906,11119,55683,95696
2025-05-27 12:54:23.204,108094,10899,11122,55690,95672
2025-05-27 12:54:23.215,108091,10904,11122,55696,95690
2025-05-27 12:54:23.227,108104,10915,11104,55700,95699
2025-05-27 12:54:23.235,108107,10901,11118,55687,95680
2025-05-27 12:54:23.253,108114,10913,11128,55703,95683
2025-05-27 12:54:23.256,108122,10908,11131,55726,95675
2025-05-27 12:54:23.268,108137,10926,11138,55725,95708
2025-05-27 12:54:23.275,108142,10931,11142,55722,95702
2025-05-27 12:54:23.287,108152,10933,11147,55733,95717
2025-05-27 12:54:23.295,108150,10941,11152,55741,95734
2025-05-27 12:54:23.315,108181,10951,11163,55768,95754
2025-05-27 12:54:23.316,108182,10952,11163,55773,95768
2025-05-27 12:54:23.328,108192,10971,11172,55788,95787
2025-05-27 12:54:23.335,108195,10965,11185,55802,95818
2025-05-27 12:54:23.347,108204,10968,11172,55818,95819
2025-05-27 12:54:23.355,108211,10976,11199,55816,95851
2025-05-27 12:54:23.378,108201,10982,11192,55828,95866
2025-05-27 12:54:23.379,108194,10991,11188,55812,95874
2025-05-27 12:54:23.387,108211,10977,11203,55838,95883
2025-05-27 12:54:23.395,108214,10994,11187,55818,95893
2025-05-27 12:54:23.407,108209,10994,11193,55836,95879
2025-05-27 12:54:23.416,108207,10995,11208,55835,95903
2025-05-27 12:54:23.427,108213,10997,11198,55835,95913
2025-05-27 12:54:23.441,108210,10990,11203,55836,95912
2025-05-27 12:54:23.447,108213,10985,11201,55838,95915
2025-05-27 12:54:23.456,108207,10983,11195,55836,95915
2025-05-27 12:54:23.467,108213,10980,11195,55819,95903
2025-05-27 12:54:23.479,108215,10974,11189,55826,95897
2025-05-27 12:54:23.487,108218,10980,11185,55808,95898
2025-05-27 12:54:23.504,108213,10973,11191,55807,95897
2025-05-27 12:54:23.507,108215,10959,11188,55795,95884
2025-05-27 12:54:23.519,108194,10962,11179,55802,95882
2025-05-27 12:54:23.528,108196,10958,11186,55804,95863
2025-05-27 12:54:23.540,108195,10973,11182,55798,95890
2025-05-27 12:54:23.547,108196,10966,11185,55804,95883
2025-05-27 12:54:23.567,108202,10961,11176,55794,95883
2025-05-27 12:54:23.568,108198,10969,11184,55811,95875
2025-05-27 12:54:23.579,108192,10952,11176,55803,95881
2025-05-27 12:54:23.587,108180,10951,11173,55789,95861
2025-05-27 12:54:23.599,108183,10947,11165,55772,95838
2025-05-27 12:54:23.607,108182,10951,11172,55776,95805
2025-05-27 12:54:23.630,108186,10947,11179,55776,95818
2025-05-27 12:54:23.631,108188,10948,11179,55758,95794
2025-05-27 12:54:23.639,108186,10948,11163,55770,95785
2025-05-27 12:54:23.647,108213,10945,11174,55764,95771
2025-05-27 12:54:23.659,108219,10947,11179,55764,95778
2025-05-27 12:54:23.668,108210,10947,11183,55762,95773
2025-05-27 12:54:23.679,108241,10947,11173,55755,95743
2025-05-27 12:54:23.693,108233,10943,11186,55754,95727
2025-05-27 12:54:23.699,108227,10952,11176,55760,95754
2025-05-27 12:54:23.708,108230,10941,11181,55748,95728
2025-05-27 12:54:23.719,108237,10945,11169,55750,95718
2025-05-27 12:54:23.727,108251,10949,11183,55733,95713
2025-05-27 12:54:23.739,108256,10952,11186,55750,95709
2025-05-27 12:54:23.756,108269,10953,11188,55753,95698
2025-05-27 12:54:23.759,108292,10961,11198,55757,95705
2025-05-27 12:54:23.771,108296,10972,11190,55781,95741
2025-05-27 12:54:23.779,108314,10977,11207,55797,95746
2025-05-27 12:54:23.791,108332,10990,11213,55805,95764
2025-05-27 12:54:23.798,108358,10999,11214,55828,95810
2025-05-27 12:54:23.819,108362,11007,11217,55853,95842
2025-05-27 12:54:23.820,108385,11021,11232,55883,95886
2025-05-27 12:54:23.831,108402,11027,11247,55886,95884
2025-05-27 12:54:23.839,108402,11038,11261,55902,95939
2025-05-27 12:54:23.851,108401,11043,11253,55912,95956
2025-05-27 12:54:23.859,108411,11054,11256,55928,96001
2025-05-27 12:54:23.882,108431,11057,11262,55947,95999
2025-05-27 12:54:23.883,108445,11070,11274,55961,96029
2025-05-27 12:54:23.891,108460,11082,11276,55976,96049
2025-05-27 12:54:23.899,108466,11085,11295,55990,96111
2025-05-27 12:54:23.910,108472,11095,11298,56017,96105
2025-05-27 12:54:23.919,108491,11094,11306,56034,96168
2025-05-27 12:54:23.931,108500,11121,11313,56057,96174
2025-05-27 12:54:23.944,108514,11115,11329,56069,96246
2025-05-27 12:54:23.951,108532,11124,11324,56074,96287
2025-05-27 12:54:23.960,108531,11129,11337,56091,96280
2025-05-27 12:54:23.972,108530,11135,11339,56072,96297
2025-05-27 12:54:23.974,108530,11135,11339,56072,96297
2025-05-27 12:54:23.978,108524,11135,11338,56068,96305
2025-05-27 12:54:23.991,108529,11129,11335,56052,96275
2025-05-27 12:54:24.007,108524,11134,11326,56050,96269
2025-05-27 12:54:24.011,108528,11134,11334,56055,96249
2025-05-27 12:54:24.023,108524,11130,11333,56052,96257
2025-05-27 12:54:24.030,108536,11131,11340,56066,96258
2025-05-27 12:54:24.043,108548,11129,11340,56054,96240
2025-05-27 12:54:24.050,108544,11145,11334,56051,96261
2025-05-27 12:54:24.069,108561,11146,11344,56067,96251
2025-05-27 12:54:24.071,108556,11148,11354,56072,96275
2025-05-27 12:54:24.082,108577,11158,11358,56073,96256
2025-05-27 12:54:24.091,108586,11149,11355,56066,96295
2025-05-27 12:54:24.103,108591,11158,11365,56089,96296
2025-05-27 12:54:24.111,108603,11167,11359,56079,96319
2025-05-27 12:54:24.132,108605,11170,11360,56104,96335
2025-05-27 12:54:24.133,108619,11161,11361,56122,96348
2025-05-27 12:54:24.142,108615,11174,11371,56118,96371
2025-05-27 12:54:24.150,108646,11173,11378,56133,96372
2025-05-27 12:54:24.163,108663,11177,11371,56133,96389
2025-05-27 12:54:24.170,108658,11182,11371,56140,96393
2025-05-27 12:54:24.194,108663,11185,11383,56151,96432
2025-05-27 12:54:24.195,108662,11187,11382,56162,96411
2025-05-27 12:54:24.202,108677,11188,11396,56162,96446
2025-05-27 12:54:24.211,108687,11193,11384,56175,96452
2025-05-27 12:54:24.237,108696,11203,11390,56186,96484
2025-05-27 12:54:24.238,108697,11205,11401,56189,96474
2025-05-27 12:54:24.243,108691,11207,11402,56199,96500
2025-05-27 12:54:24.258,108697,11216,11412,56210,96522
2025-05-27 12:54:24.262,108710,11216,11407,56214,96549
2025-05-27 12:54:24.275,108736,11223,11414,56213,96555
2025-05-27 12:54:24.282,108712,11227,11415,56222,96558
2025-05-27 12:54:24.294,108709,11219,11417,56212,96570
2025-05-27 12:54:24.303,108724,11230,11420,56217,96559
2025-05-27 12:54:24.320,108714,11236,11427,56216,96584
2025-05-27 12:54:24.322,108736,11231,11434,56214,96577
2025-05-27 12:54:24.335,108733,11238,11442,56212,96581
2025-05-27 12:54:24.343,108738,11236,11434,56222,96605
2025-05-27 12:54:24.354,108733,11248,11438,56216,96611
2025-05-27 12:54:24.363,108719,11244,11438,56201,96592
2025-05-27 12:54:24.382,108721,11239,11435,56197,96605
2025-05-27 12:54:24.384,108713,11236,11437,56195,96600
2025-05-27 12:54:24.394,108705,11234,11434,56184,96597
2025-05-27 12:54:24.402,108705,11234,11437,56182,96585
2025-05-27 12:54:24.415,108709,11249,11431,56176,96585
2025-05-27 12:54:24.423,108705,11235,11435,56176,96580
2025-05-27 12:54:24.445,108703,11239,11437,56169,96566
2025-05-27 12:54:24.446,108707,11247,11445,56168,96583
2025-05-27 12:54:24.455,108708,11245,11441,56162,96593
2025-05-27 12:54:24.462,108679,11239,11440,56172,96568
2025-05-27 12:54:24.474,108698,11240,11448,56158,96579
2025-05-27 12:54:24.482,108684,11235,11439,56146,96562
2025-05-27 12:54:24.508,108696,11238,11450,56149,96564
2025-05-27 12:54:24.509,108688,11244,11449,56134,96558
2025-05-27 12:54:24.514,108671,11247,11446,56140,96553
2025-05-27 12:54:24.526,108674,11237,11451,56140,96550
2025-05-27 12:54:24.535,108663,11241,11454,56141,96558
2025-05-27 12:54:24.547,108653,11247,11459,56129,96548
2025-05-27 12:54:24.554,108678,11244,11448,56137,96548
2025-05-27 12:54:24.570,108671,11245,11455,56136,96561
2025-05-27 12:54:24.575,108673,11251,11463,56134,96568
2025-05-27 12:54:24.587,108661,11254,11464,56128,96558
2025-05-27 12:54:24.594,108684,11257,11460,56136,96554
2025-05-27 12:54:24.607,108665,11257,11463,56138,96559
2025-05-27 12:54:24.615,108674,11252,11466,56142,96565
2025-05-27 12:54:24.633,108699,11258,11477,56136,96573
2025-05-27 12:54:24.635,108687,11254,11478,56139,96578
2025-05-27 12:54:24.646,108695,11258,11477,56142,96575
2025-05-27 12:54:24.655,108697,11268,11471,56156,96609
2025-05-27 12:54:24.666,108709,11271,11484,56151,96591
2025-05-27 12:54:24.675,108706,11271,11486,56163,96612
2025-05-27 12:54:24.697,108702,11275,11493,56163,96637
2025-05-27 12:54:24.698,108708,11279,11497,56160,96631
2025-05-27 12:54:24.707,108729,11286,11490,56172,96636
2025-05-27 12:54:24.714,108723,11291,11498,56179,96635
2025-05-27 12:54:24.726,108726,11292,11502,56170,96652
2025-05-27 12:54:24.735,108734,11291,11501,56186,96670
2025-05-27 12:54:24.759,108729,11284,11509,56175,96665
2025-05-27 12:54:24.761,108733,11296,11508,56182,96660
2025-05-27 12:54:24.767,108720,11301,11520,56173,96659
2025-05-27 12:54:24.779,108731,11303,11516,56185,96665
2025-05-27 12:54:24.786,108715,11298,11515,56182,96683
2025-05-27 12:54:24.799,108732,11303,11520,56202,96679
2025-05-27 12:54:24.807,108737,11296,11517,56198,96695
2025-05-27 12:54:24.821,108736,11299,11523,56212,96706
2025-05-27 12:54:24.826,108738,11297,11519,56215,96727
2025-05-27 12:54:24.838,108747,11295,11519,56229,96730
2025-05-27 12:54:24.847,108739,11300,11523,56232,96758
2025-05-27 12:54:24.858,108743,11297,11522,56243,96756
2025-05-27 12:54:24.866,108736,11290,11524,56232,96751
2025-05-27 12:54:24.884,108735,11298,11517,56234,96753
2025-05-27 12:54:24.886,108744,11292,11514,56231,96760
2025-05-27 12:54:24.899,108734,11288,11519,56223,96751
2025-05-27 12:54:24.906,108729,11282,11515,56233,96746
2025-05-27 12:54:24.918,108741,11272,11506,56222,96756
2025-05-27 12:54:24.926,108747,11270,11506,56227,96735
2025-05-27 12:54:24.947,108740,11274,11506,56230,96740
2025-05-27 12:54:24.948,108732,11268,11517,56212,96754
2025-05-27 12:54:24.959,108729,11273,11508,56216,96742
2025-05-27 12:54:24.967,108725,11269,11504,56232,96755
2025-05-27 12:54:24.979,108729,11255,11513,56213,96739
2025-05-27 12:54:24.987,108731,11259,11501,56208,96741
2025-05-27 12:54:25.010,108730,11261,11503,56207,96737
2025-05-27 12:54:25.011,108705,11258,11508,56210,96736
2025-05-27 12:54:25.018,108722,11261,11506,56192,96704
2025-05-27 12:54:25.027,108694,11246,11507,56199,96680
2025-05-27 12:54:25.038,108705,11255,11505,56188,96700
2025-05-27 12:54:25.045,108696,11252,11502,56180,96690
2025-05-27 12:54:25.058,108696,11245,11496,56189,96688
2025-05-27 12:54:25.073,108711,11251,11505,56186,96686
2025-05-27 12:54:25.079,108704,11254,11508,56201,96672
2025-05-27 12:54:25.090,108714,11255,11507,56198,96683
2025-05-27 12:54:25.098,108718,11262,11506,56200,96676
2025-05-27 12:54:25.110,108705,11267,11511,56205,96695
2025-05-27 12:54:25.118,108705,11253,11502,56205,96686
2025-05-27 12:54:25.136,108714,11255,11505,56217,96703
2025-05-27 12:54:25.138,108726,11260,11516,56206,96719
2025-05-27 12:54:25.151,108735,11259,11510,56220,96700
2025-05-27 12:54:25.158,108736,11257,11508,56224,96700
2025-05-27 12:54:25.170,108728,11267,11512,56236,96710
2025-05-27 12:54:25.183,108723,11265,11520,56244,96719
2025-05-27 12:54:25.184,108723,11265,11520,56244,96719
2025-05-27 12:54:25.199,108736,11273,11532,56254,96748
2025-05-27 12:54:25.200,108747,11276,11532,56266,96759
2025-05-27 12:54:25.211,108746,11280,11530,56275,96775
2025-05-27 12:54:25.218,108740,11282,11547,56277,96804
2025-05-27 12:54:25.230,108763,11289,11539,56269,96790
2025-05-27 12:54:25.239,108737,11295,11548,56283,96785
2025-05-27 12:54:25.262,108750,11286,11549,56270,96777
2025-05-27 12:54:25.263,108743,11283,11539,56263,96778
2025-05-27 12:54:25.270,108747,11283,11539,56262,96762
2025-05-27 12:54:25.279,108739,11280,11548,56257,96764
2025-05-27 12:54:25.291,108744,11277,11542,56263,96752
2025-05-27 12:54:25.298,108746,11289,11551,56255,96752
2025-05-27 12:54:25.310,108745,11279,11541,56268,96753
2025-05-27 12:54:25.324,108762,11289,11548,56276,96752
2025-05-27 12:54:25.330,108757,11301,11547,56269,96759
2025-05-27 12:54:25.342,108750,11298,11551,56277,96757
2025-05-27 12:54:25.350,108762,11292,11552,56281,96768
2025-05-27 12:54:25.363,108738,11287,11562,56282,96749
2025-05-27 12:54:25.370,108764,11294,11559,56274,96764
2025-05-27 12:54:25.387,108759,11300,11562,56272,96752
2025-05-27 12:54:25.390,108766,11303,11569,56287,96773
2025-05-27 12:54:25.402,108783,11299,11563,56303,96780
2025-05-27 12:54:25.410,108806,11310,11582,56299,96762
2025-05-27 12:54:25.422,108806,11321,11575,56310,96784
2025-05-27 12:54:25.431,108813,11313,11582,56329,96805
2025-05-27 12:54:25.449,108821,11319,11588,56333,96831
2025-05-27 12:54:25.450,108824,11327,11595,56349,96844
2025-05-27 12:54:25.463,108818,11340,11592,56353,96831
2025-05-27 12:54:25.471,108837,11344,11587,56355,96859
2025-05-27 12:54:25.482,108795,11344,11609,56357,96880
2025-05-27 12:54:25.490,108816,11353,11600,56370,96876
2025-05-27 12:54:25.513,108805,11349,11605,56358,96885
2025-05-27 12:54:25.514,108832,11346,11616,56366,96893
2025-05-27 12:54:25.522,108818,11350,11618,56394,96901
2025-05-27 12:54:25.530,108830,11365,11610,56406,96911
2025-05-27 12:54:25.542,108859,11357,11613,56410,96959
2025-05-27 12:54:25.550,108875,11353,11609,56431,96964
2025-05-27 12:54:25.575,108899,11355,11618,56448,96992
2025-05-27 12:54:25.576,108898,11360,11621,56448,97012
2025-05-27 12:54:25.582,108901,11353,11628,56457,97022
2025-05-27 12:54:25.594,108887,11358,11619,56447,97037
2025-05-27 12:54:25.602,108873,11358,11626,56459,97029
2025-05-27 12:54:25.615,108844,11340,11619,56429,97018
2025-05-27 12:54:25.622,108840,11339,11609,56426,97016
2025-05-27 12:54:25.640,108790,11328,11600,56412,96977
2025-05-27 12:54:25.642,108799,11320,11602,56390,96971
2025-05-27 12:54:25.654,108788,11311,11596,56383,96935
2025-05-27 12:54:25.662,108799,11316,11589,56378,96914
2025-05-27 12:54:25.674,108802,11303,11588,56360,96896
2025-05-27 12:54:25.683,108798,11292,11582,56344,96877
2025-05-27 12:54:25.702,108764,11290,11575,56343,96881
2025-05-27 12:54:25.703,108787,11267,11575,56319,96843
2025-05-27 12:54:25.714,108778,11276,11562,56312,96814
2025-05-27 12:54:25.722,108766,11267,11567,56303,96809
2025-05-27 12:54:25.734,108774,11261,11564,56299,96798
2025-05-27 12:54:25.741,108746,11268,11553,56295,96768
2025-05-27 12:54:25.765,108746,11259,11563,56289,96743
2025-05-27 12:54:25.766,108759,11263,11556,56281,96744
2025-05-27 12:54:25.773,108754,11264,11569,56306,96760
2025-05-27 12:54:25.782,108771,11273,11566,56325,96768
2025-05-27 12:54:25.794,108765,11277,11590,56333,96784
2025-05-27 12:54:25.802,108809,11291,11590,56359,96835
2025-05-27 12:54:25.813,108815,11303,11586,56381,96858
2025-05-27 12:54:25.828,108836,11312,11601,56403,96902
2025-05-27 12:54:25.834,108860,11320,11603,56425,96932
2025-05-27 12:54:25.842,108867,11328,11623,56447,96980
2025-05-27 12:54:25.854,108872,11331,11620,56457,97002
2025-05-27 12:54:25.866,108861,11343,11623,56459,97031
2025-05-27 12:54:25.875,108868,11342,11632,56483,97069
2025-05-27 12:54:25.890,108855,11349,11630,56480,97074
2025-05-27 12:54:25.894,108846,11346,11633,56492,97097
2025-05-27 12:54:25.906,108864,11347,11640,56496,97118
2025-05-27 12:54:25.913,108861,11358,11639,56494,97116
2025-05-27 12:54:25.926,108856,11353,11649,56506,97135
2025-05-27 12:54:25.934,108848,11358,11655,56504,97151
2025-05-27 12:54:25.953,108854,11346,11648,56504,97168
2025-05-27 12:54:25.954,108863,11361,11651,56498,97167
2025-05-27 12:54:25.965,108865,11350,11655,56495,97169
2025-05-27 12:54:25.974,108843,11351,11640,56484,97156
2025-05-27 12:54:25.986,108838,11348,11639,56473,97135
2025-05-27 12:54:25.994,108825,11326,11631,56452,97119
2025-05-27 12:54:26.015,108810,11325,11636,56435,97094
2025-05-27 12:54:26.016,108807,11311,11628,56418,97058
2025-05-27 12:54:26.026,108794,11305,11616,56392,97030
2025-05-27 12:54:26.034,108763,11314,11617,56384,97005
2025-05-27 12:54:26.046,108760,11311,11614,56366,96983
2025-05-27 12:54:26.054,108748,11309,11608,56347,96952
2025-05-27 12:54:26.078,108765,11302,11608,56355,96948
2025-05-27 12:54:26.079,108760,11297,11618,56356,96934
2025-05-27 12:54:26.086,108782,11289,11619,56357,96933
2025-05-27 12:54:26.093,108775,11294,11620,56371,96927
2025-05-27 12:54:26.105,108790,11299,11622,56373,96946
2025-05-27 12:54:26.114,108782,11315,11628,56372,96966
2025-05-27 12:54:26.126,108794,11313,11621,56377,96958
2025-05-27 12:54:26.141,108778,11318,11637,56390,96966
2025-05-27 12:54:26.146,108805,11315,11632,56390,96994
2025-05-27 12:54:26.157,108778,11315,11636,56393,97015
2025-05-27 12:54:26.166,108810,11329,11644,56388,97024
2025-05-27 12:54:26.178,108799,11329,11635,56407,97021
2025-05-27 12:54:26.186,108818,11340,11643,56391,97018
2025-05-27 12:54:26.203,108813,11328,11652,56412,97041
2025-05-27 12:54:26.206,108823,11335,11650,56412,97024
2025-05-27 12:54:26.218,108825,11338,11655,56411,97031
2025-05-27 12:54:26.226,108821,11354,11653,56420,97050
2025-05-27 12:54:26.237,108819,11346,11660,56416,97063
2025-05-27 12:54:26.246,108828,11347,11669,56420,97060
2025-05-27 12:54:26.266,108817,11341,11669,56419,97065
2025-05-27 12:54:26.267,108809,11335,11656,56403,97055
2025-05-27 12:54:26.277,108801,11343,11650,56398,97072
2025-05-27 12:54:26.285,108791,11346,11659,56403,97058
2025-05-27 12:54:26.298,108819,11335,11663,56405,97046
2025-05-27 12:54:26.306,108780,11339,11651,56386,97045
2025-05-27 12:54:26.328,108789,11324,11653,56399,97030
2025-05-27 12:54:26.330,108793,11326,11647,56397,97036
2025-05-27 12:54:26.337,108783,11325,11644,56402,97025
2025-05-27 12:54:26.346,108788,11321,11646,56395,97035
2025-05-27 12:54:26.358,108805,11323,11645,56397,97035
2025-05-27 12:54:26.366,108804,11316,11649,56406,97036
2025-05-27 12:54:26.378,108793,11307,11645,56412,97054
2025-05-27 12:54:26.392,108817,11320,11645,56408,97042
2025-05-27 12:54:26.394,108817,11320,11645,56408,97042
2025-05-27 12:54:26.398,108823,11312,11645,56417,97077
2025-05-27 12:54:26.409,108821,11319,11645,56425,97103
2025-05-27 12:54:26.418,108833,11324,11654,56431,97119
2025-05-27 12:54:26.430,108818,11317,11652,56444,97127
2025-05-27 12:54:26.437,108829,11320,11658,56450,97126
2025-05-27 12:54:26.454,108841,11334,11659,56459,97171
2025-05-27 12:54:26.458,108839,11323,11663,56465,97177
2025-05-27 12:54:26.469,108834,11342,11659,56479,97194
2025-05-27 12:54:26.478,108853,11338,11679,56485,97219
2025-05-27 12:54:26.490,108846,11336,11654,56477,97227
2025-05-27 12:54:26.498,108839,11325,11656,56465,97227
2025-05-27 12:54:26.517,108812,11323,11660,56447,97224
2025-05-27 12:54:26.518,108814,11313,11641,56433,97184
2025-05-27 12:54:26.530,108797,11299,11641,56395,97152
2025-05-27 12:54:26.538,108790,11284,11636,56367,97122
2025-05-27 12:54:26.550,108761,11273,11631,56333,97076
2025-05-27 12:54:26.558,108752,11269,11615,56311,97036
2025-05-27 12:54:26.581,108739,11252,11605,56294,96986
2025-05-27 12:54:26.582,108723,11247,11603,56287,96951
2025-05-27 12:54:26.589,108717,11240,11592,56275,96936
2025-05-27 12:54:26.597,108704,11247,11590,56264,96899
2025-05-27 12:54:26.609,108695,11229,11594,56245,96894
2025-05-27 12:54:26.617,108694,11232,11593,56242,96856
2025-05-27 12:54:26.630,108663,11234,11589,56225,96849
2025-05-27 12:54:26.645,108669,11222,11581,56223,96831
2025-05-27 12:54:26.650,108663,11213,11584,56208,96805
2025-05-27 12:54:26.662,108655,11220,11574,56216,96787
2025-05-27 12:54:26.670,108655,11222,11571,56203,96782
2025-05-27 12:54:26.682,108647,11219,11581,56213,96792
2025-05-27 12:54:26.690,108663,11223,11564,56213,96773
2025-05-27 12:54:26.707,108677,11225,11582,56241,96801
2025-05-27 12:54:26.709,108664,11240,11579,56250,96839
2025-05-27 12:54:26.722,108661,11238,11597,56245,96830
2025-05-27 12:54:26.729,108667,11247,11593,56273,96862
2025-05-27 12:54:26.742,108675,11249,11603,56283,96888
2025-05-27 12:54:26.749,108661,11249,11604,56288,96895
2025-05-27 12:54:26.770,108666,11263,11608,56282,96917
2025-05-27 12:54:26.771,108659,11259,11603,56276,96919
2025-05-27 12:54:26.782,108669,11264,11623,56281,96922
2025-05-27 12:54:26.790,108659,11260,11603,56268,96897
2025-05-27 12:54:26.801,108637,11255,11601,56268,96904
2025-05-27 12:54:26.810,108656,11264,11612,56250,96860
2025-05-27 12:54:26.833,108642,11262,11600,56252,96882
2025-05-27 12:54:26.834,108655,11268,11597,56247,96872
2025-05-27 12:54:26.842,108666,11265,11603,56263,96880
2025-05-27 12:54:26.850,108683,11270,11620,56263,96880
2025-05-27 12:54:26.861,108691,11269,11612,56277,96882
2025-05-27 12:54:26.870,108690,11266,11609,56263,96899
2025-05-27 12:54:26.881,108687,11273,11624,56260,96909
2025-05-27 12:54:26.895,108713,11270,11618,56262,96913
2025-05-27 12:54:26.902,108712,11272,11628,56255,96914
2025-05-27 12:54:26.910,108700,11285,11613,56252,96910
2025-05-27 12:54:26.922,108698,11271,11622,56244,96908
2025-05-27 12:54:26.933,108691,11267,11609,56235,96880
2025-05-27 12:54:26.942,108690,11271,11622,56230,96870
2025-05-27 12:54:26.960,108708,11270,11616,56237,96870
2025-05-27 12:54:26.961,108703,11276,11614,56230,96872
2025-05-27 12:54:26.974,108719,11277,11620,56227,96882
2025-05-27 12:54:26.981,108718,11272,11625,56232,96883
2025-05-27 12:54:26.994,108710,11270,11620,56211,96875
2025-05-27 12:54:27.001,108715,11264,11626,56198,96877
2025-05-27 12:54:27.024,108700,11263,11618,56191,96847
2025-05-27 12:54:27.025,108703,11260,11622,56173,96815
2025-05-27 12:54:27.033,108686,11245,11603,56153,96797
2025-05-27 12:54:27.041,108701,11232,11607,56129,96750
2025-05-27 12:54:27.053,108690,11238,11595,56098,96731
2025-05-27 12:54:27.061,108687,11230,11585,56106,96676
2025-05-27 12:54:27.073,108689,11228,11592,56079,96653
2025-05-27 12:54:27.088,108702,11228,11596,56088,96649
2025-05-27 12:54:27.094,108716,11241,11601,56096,96634
2025-05-27 12:54:27.101,108752,11238,11599,56125,96663
2025-05-27 12:54:27.113,108762,11248,11612,56148,96702
2025-05-27 12:54:27.122,108780,11262,11623,56174,96747
2025-05-27 12:54:27.133,108797,11273,11624,56198,96791
2025-05-27 12:54:27.150,108812,11283,11627,56211,96850
2025-05-27 12:54:27.154,108816,11273,11625,56218,96863
2025-05-27 12:54:27.162,108813,11283,11624,56212,96861
2025-05-27 12:54:27.174,108813,11264,11622,56199,96861
2025-05-27 12:54:27.181,108790,11255,11611,56177,96841
2025-05-27 12:54:27.194,108788,11247,11600,56151,96827
2025-05-27 12:54:27.213,108767,11235,11591,56138,96796
2025-05-27 12:54:27.215,108760,11218,11588,56101,96773
2025-05-27 12:54:27.226,108759,11221,11570,56090,96727
2025-05-27 12:54:27.233,108744,11194,11563,56075,96679
2025-05-27 12:54:27.245,108732,11196,11559,56043,96642
2025-05-27 12:54:27.254,108735,11183,11548,56029,96606
2025-05-27 12:54:27.278,108717,11177,11545,56014,96565
2025-05-27 12:54:27.279,108725,11176,11530,56004,96553
2025-05-27 12:54:27.285,108731,11173,11519,55992,96527
2025-05-27 12:54:27.293,108727,11171,11536,55987,96489
2025-05-27 12:54:27.306,108723,11166,11524,55978,96499
2025-05-27 12:54:27.314,108722,11164,11526,55963,96466
2025-05-27 12:54:27.325,108716,11158,11515,55950,96454
2025-05-27 12:54:27.341,108708,11156,11518,55926,96420
2025-05-27 12:54:27.346,108724,11138,11511,55913,96384
2025-05-27 12:54:27.353,108696,11131,11503,55893,96355
2025-05-27 12:54:27.365,108704,11134,11514,55879,96335
2025-05-27 12:54:27.374,108706,11126,11497,55882,96320
2025-05-27 12:54:27.385,108713,11121,11489,55858,96290
2025-05-27 12:54:27.403,108724,11120,11495,55843,96270
2025-05-27 12:54:27.405,108724,11120,11495,55843,96270
2025-05-27 12:54:27.406,108733,11121,11488,55850,96246
2025-05-27 12:54:27.413,108731,11115,11481,55832,96229
2025-05-27 12:54:27.425,108741,11123,11488,55843,96220
2025-05-27 12:54:27.434,108760,11131,11488,55832,96216
2025-05-27 12:54:27.445,108747,11121,11481,55829,96207
2025-05-27 12:54:27.467,108772,11120,11479,55814,96183
2025-05-27 12:54:27.468,108724,11109,11473,55791,96163
2025-05-27 12:54:27.477,108758,11110,11475,55799,96153
2025-05-27 12:54:27.485,108746,11113,11470,55785,96120
2025-05-27 12:54:27.497,108757,11114,11469,55787,96123
2025-05-27 12:54:27.505,108748,11104,11463,55789,96108
2025-05-27 12:54:27.530,108762,11111,11473,55782,96104
2025-05-27 12:54:27.531,108756,11120,11473,55766,96100
2025-05-27 12:54:27.537,108785,11123,11474,55782,96106
2025-05-27 12:54:27.546,108786,11111,11471,55781,96114
2025-05-27 12:54:27.557,108773,11133,11478,55792,96126
2025-05-27 12:54:27.565,108775,11135,11478,55798,96101
2025-05-27 12:54:27.578,108779,11131,11476,55774,96131
2025-05-27 12:54:27.592,108778,11126,11471,55765,96101
2025-05-27 12:54:27.598,108768,11131,11472,55752,96100
2025-05-27 12:54:27.605,108761,11125,11468,55748,96082
2025-05-27 12:54:27.618,108746,11130,11458,55751,96056
2025-05-27 12:54:27.626,108725,11116,11452,55736,96042
2025-05-27 12:54:27.637,108745,11119,11460,55705,95998
2025-05-27 12:54:27.655,108721,11097,11451,55703,95971
2025-05-27 12:54:27.657,108724,11103,11441,55686,95955
2025-05-27 12:54:27.665,108716,11095,11440,55672,95923
2025-05-27 12:54:27.677,108724,11096,11438,55652,95910
2025-05-27 12:54:27.685,108697,11095,11430,55654,95886
2025-05-27 12:54:27.698,108700,11090,11430,55631,95867
2025-05-27 12:54:27.717,108685,11087,11426,55634,95814
2025-05-27 12:54:27.719,108675,11080,11420,55610,95822
2025-05-27 12:54:27.730,108666,11083,11435,55600,95793
2025-05-27 12:54:27.737,108660,11083,11416,55588,95759
2025-05-27 12:54:27.749,108642,11078,11411,55566,95736
2025-05-27 12:54:27.757,108645,11072,11415,55563,95700
2025-05-27 12:54:27.780,108635,11066,11400,55540,95676
2025-05-27 12:54:27.782,108642,11063,11395,55535,95648
2025-05-27 12:54:27.789,108634,11071,11397,55498,95614
2025-05-27 12:54:27.797,108637,11061,11386,55493,95570
2025-05-27 12:54:27.809,108641,11058,11388,55499,95556
2025-05-27 12:54:27.817,108662,11062,11388,55491,95560
2025-05-27 12:54:27.829,108649,11064,11390,55498,95540
2025-05-27 12:54:27.844,108660,11069,11395,55496,95538
2025-05-27 12:54:27.849,108658,11067,11402,55512,95538
2025-05-27 12:54:27.857,108653,11081,11398,55499,95543
2025-05-27 12:54:27.868,108645,11075,11389,55486,95520
2025-05-27 12:54:27.877,108618,11067,11395,55476,95518
2025-05-27 12:54:27.890,108633,11071,11393,55462,95503
2025-05-27 12:54:27.907,108594,11057,11392,55459,95454
2025-05-27 12:54:27.910,108583,11060,11382,55439,95436
2025-05-27 12:54:27.917,108579,11061,11386,55412,95415
2025-05-27 12:54:27.929,108563,11047,11375,55411,95377
2025-05-27 12:54:27.938,108553,11067,11371,55413,95341
2025-05-27 12:54:27.949,108548,11076,11377,55429,95359
2025-05-27 12:54:27.972,108534,11071,11373,55430,95382
2025-05-27 12:54:27.973,108504,11055,11361,55411,95359
2025-05-27 12:54:27.981,108513,11063,11369,55416,95345
2025-05-27 12:54:27.989,108501,11063,11361,55410,95329
2025-05-27 12:54:28.001,108497,11059,11361,55410,95334
2025-05-27 12:54:28.009,108500,11067,11353,55411,95301
2025-05-27 12:54:28.020,108478,11062,11351,55411,95310
2025-05-27 12:54:28.035,108475,11070,11348,55406,95315
2025-05-27 12:54:28.041,108470,11052,11346,55400,95300
2025-05-27 12:54:28.048,108479,11064,11348,55395,95306
2025-05-27 12:54:28.062,108478,11063,11338,55415,95306
2025-05-27 12:54:28.069,108468,11064,11335,55415,95298
2025-05-27 12:54:28.080,108488,11064,11342,55416,95287
2025-05-27 12:54:28.097,108482,11066,11342,55402,95279
2025-05-27 12:54:28.101,108470,11076,11343,55415,95280
2025-05-27 12:54:28.109,108476,11072,11332,55413,95281
2025-05-27 12:54:28.120,108477,11073,11342,55409,95275
2025-05-27 12:54:28.130,108452,11072,11334,55408,95285
2025-05-27 12:54:28.141,108441,11071,11337,55410,95264
2025-05-27 12:54:28.161,108438,11070,11332,55401,95258
2025-05-27 12:54:28.162,108442,11077,11337,55397,95252
2025-05-27 12:54:28.169,108428,11070,11336,55398,95240
2025-05-27 12:54:28.181,108447,11077,11338,55402,95232
2025-05-27 12:54:28.189,108429,11081,11342,55396,95223
2025-05-27 12:54:28.201,108459,11081,11337,55413,95240
2025-05-27 12:54:28.210,108461,11081,11339,55421,95232
2025-05-27 12:54:28.226,108472,11100,11346,55457,95254
2025-05-27 12:54:28.229,108471,11096,11344,55436,95274
2025-05-27 12:54:28.241,108488,11108,11350,55452,95286
2025-05-27 12:54:28.253,108496,11126,11357,55459,95313
2025-05-27 12:54:28.262,108518,11121,11358,55478,95324
2025-05-27 12:54:28.273,108526,11136,11362,55477,95341
2025-05-27 12:54:28.292,108524,11134,11371,55486,95336
2025-05-27 12:54:28.294,108525,11138,11377,55495,95362
2025-05-27 12:54:28.301,108542,11144,11377,55500,95357
2025-05-27 12:54:28.313,108559,11152,11376,55497,95376
2025-05-27 12:54:28.321,108552,11157,11390,55514,95368
2025-05-27 12:54:28.333,108557,11158,11380,55516,95384
2025-05-27 12:54:28.341,108552,11175,11384,55514,95382
2025-05-27 12:54:28.360,108571,11171,11390,55516,95392
2025-05-27 12:54:28.362,108581,11181,11397,55533,95420
2025-05-27 12:54:28.373,108581,11185,11401,55531,95429
2025-05-27 12:54:28.381,108580,11189,11400,55533,95458
2025-05-27 12:54:28.393,108568,11195,11403,55558,95448
2025-05-27 12:54:28.401,108577,11195,11413,55551,95450
2025-05-27 12:54:28.426,108563,11195,11407,55543,95461
2025-05-27 12:54:28.427,108559,11210,11418,55531,95445
2025-05-27 12:54:28.433,108582,11190,11421,55530,95445
2025-05-27 12:54:28.441,108567,11200,11405,55532,95434
2025-05-27 12:54:28.453,108559,11198,11407,55540,95434
2025-05-27 12:54:28.460,108567,11208,11405,55538,95440
2025-05-27 12:54:28.473,108554,11216,11404,55535,95439
2025-05-27 12:54:28.493,108567,11207,11406,55542,95419
2025-05-27 12:54:28.494,108582,11214,11404,55537,95437
2025-05-27 12:54:28.506,108569,11211,11409,55536,95421
2025-05-27 12:54:28.513,108563,11216,11413,55545,95441
2025-05-27 12:54:28.525,108578,11212,11421,55539,95423
2025-05-27 12:54:28.534,108576,11219,11419,55525,95445
2025-05-27 12:54:28.560,108575,11221,11414,55550,95427
2025-05-27 12:54:28.561,108568,11222,11420,55554,95420
2025-05-27 12:54:28.565,108581,11234,11421,55546,95426
2025-05-27 12:54:28.573,108586,11225,11421,55559,95449
2025-05-27 12:54:28.584,108612,11236,11426,55581,95459
2025-05-27 12:54:28.594,108615,11248,11435,55596,95486
2025-05-27 12:54:28.604,108624,11252,11446,55615,95502
2025-05-27 12:54:28.608,108624,11252,11446,55615,95502
2025-05-27 12:54:28.624,108664,11271,11462,55643,95562
2025-05-27 12:54:28.625,108670,11276,11452,55645,95586
2025-05-27 12:54:28.632,108685,11286,11467,55648,95582
2025-05-27 12:54:28.645,108680,11294,11461,55665,95610
2025-05-27 12:54:28.652,108689,11293,11483,55667,95618
2025-05-27 12:54:28.665,108684,11303,11485,55668,95623
2025-05-27 12:54:28.673,108695,11312,11485,55674,95638
2025-05-27 12:54:28.687,108690,11309,11487,55653,95655
2025-05-27 12:54:28.693,108707,11310,11493,55652,95650
2025-05-27 12:54:28.704,108699,11309,11503,55653,95654
2025-05-27 12:54:28.714,108692,11311,11487,55650,95648
2025-05-27 12:54:28.725,108703,11309,11505,55677,95639
2025-05-27 12:54:28.751,108734,11320,11510,55675,95649
2025-05-27 12:54:28.752,108746,11336,11508,55689,95678
2025-05-27 12:54:28.756,108761,11341,11527,55717,95700
2025-05-27 12:54:28.766,108758,11348,11541,55727,95752
2025-05-27 12:54:28.777,108785,11365,11548,55773,95798
2025-05-27 12:54:28.784,108816,11378,11565,55817,95850
2025-05-27 12:54:28.797,108837,11417,11590,55850,95917
2025-05-27 12:54:28.813,108861,11438,11601,55923,96014
2025-05-27 12:54:28.817,108887,11462,11622,55987,96126
2025-05-27 12:54:28.825,108922,11489,11644,56050,96245
2025-05-27 12:54:28.837,108933,11507,11663,56125,96373
2025-05-27 12:54:28.844,108971,11533,11660,56179,96493
2025-05-27 12:54:28.857,108976,11538,11691,56226,96603
2025-05-27 12:54:28.877,108978,11557,11693,56256,96717
2025-05-27 12:54:28.879,108979,11574,11692,56272,96768
2025-05-27 12:54:28.885,108949,11577,11707,56280,96809
2025-05-27 12:54:28.896,108925,11576,11698,56300,96855
2025-05-27 12:54:28.904,108916,11572,11720,56288,96886
2025-05-27 12:54:28.917,108897,11573,11713,56292,96888
2025-05-27 12:54:28.925,108858,11570,11693,56270,96893
2025-05-27 12:54:28.940,108831,11566,11696,56244,96861
2025-05-27 12:54:28.945,108808,11550,11683,56208,96853
2025-05-27 12:54:28.957,108783,11547,11681,56192,96824
2025-05-27 12:54:28.965,108756,11534,11668,56168,96779
2025-05-27 12:54:28.977,108730,11541,11665,56143,96746
2025-05-27 12:54:28.984,108685,11521,11643,56109,96707
2025-05-27 12:54:29.004,108667,11499,11642,56074,96666
2025-05-27 12:54:29.008,108625,11488,11639,56050,96605
2025-05-27 12:54:29.017,108623,11479,11613,56019,96564
2025-05-27 12:54:29.029,108581,11467,11608,55990,96500
2025-05-27 12:54:29.036,108552,11445,11602,55954,96480
2025-05-27 12:54:29.048,108538,11436,11594,55922,96417
2025-05-27 12:54:29.068,108520,11423,11573,55901,96365
2025-05-27 12:54:29.069,108490,11411,11563,55883,96314
2025-05-27 12:54:29.077,108475,11397,11550,55854,96285
2025-05-27 12:54:29.088,108466,11380,11558,55839,96235
2025-05-27 12:54:29.096,108437,11367,11536,55819,96202
2025-05-27 12:54:29.109,108427,11359,11531,55797,96158
2025-05-27 12:54:29.116,108400,11353,11513,55771,96131
2025-05-27 12:54:29.131,108394,11340,11502,55753,96107
2025-05-27 12:54:29.136,108390,11329,11499,55728,96086
2025-05-27 12:54:29.148,108369,11319,11489,55736,96060
2025-05-27 12:54:29.157,108365,11319,11495,55738,96016
2025-05-27 12:54:29.169,108363,11319,11484,55730,96006
2025-05-27 12:54:29.176,108377,11312,11475,55747,95994
2025-05-27 12:54:29.194,108393,11315,11499,55752,96015
2025-05-27 12:54:29.197,108424,11330,11491,55779,96031
2025-05-27 12:54:29.208,108441,11342,11504,55831,96091
2025-05-27 12:54:29.217,108461,11363,11518,55895,96158
2025-05-27 12:54:29.229,108484,11390,11532,55964,96262
2025-05-27 12:54:29.236,108514,11432,11570,56040,96378
2025-05-27 12:54:29.257,108538,11470,11591,56130,96526
2025-05-27 12:54:29.258,108568,11497,11626,56227,96694
2025-05-27 12:54:29.268,108601,11530,11648,56321,96862
2025-05-27 12:54:29.276,108632,11573,11664,56411,97026
2025-05-27 12:54:29.288,108656,11603,11694,56470,97194
2025-05-27 12:54:29.301,108678,11616,11696,56468,97329
2025-05-27 12:54:29.320,108730,11606,11712,56506,97332
2025-05-27 12:54:29.321,108733,11612,11721,56525,97380
2025-05-27 12:54:29.329,108729,11620,11725,56522,97444
2025-05-27 12:54:29.340,108705,11625,11728,56505,97437
2025-05-27 12:54:29.349,108689,11620,11711,56481,97443
2025-05-27 12:54:29.360,108656,11607,11712,56444,97417
2025-05-27 12:54:29.368,108611,11594,11697,56389,97333
2025-05-27 12:54:29.382,108600,11582,11686,56354,97287
2025-05-27 12:54:29.388,108587,11572,11668,56321,97209
2025-05-27 12:54:29.400,108548,11551,11659,56263,97145
2025-05-27 12:54:29.409,108520,11530,11644,56239,97080
2025-05-27 12:54:29.420,108495,11519,11623,56204,97030
2025-05-27 12:54:29.428,108469,11510,11628,56187,96971
2025-05-27 12:54:29.445,108441,11488,11618,56142,96934
2025-05-27 12:54:29.449,108428,11475,11593,56110,96858
2025-05-27 12:54:29.460,108408,11471,11581,56068,96798
2025-05-27 12:54:29.469,108377,11445,11582,56031,96745
2025-05-27 12:54:29.480,108373,11444,11566,56030,96694
2025-05-27 12:54:29.489,108357,11426,11554,55975,96638
2025-05-27 12:54:29.508,108334,11410,11544,55950,96593
2025-05-27 12:54:29.509,108326,11387,11522,55915,96543
2025-05-27 12:54:29.521,108308,11374,11507,55869,96461
2025-05-27 12:54:29.528,108296,11347,11505,55839,96393
2025-05-27 12:54:29.541,108263,11347,11501,55804,96337
2025-05-27 12:54:29.552,108285,11315,11481,55774,96270
2025-05-27 12:54:29.571,108261,11308,11462,55744,96195
2025-05-27 12:54:29.572,108269,11285,11455,55730,96138
2025-05-27 12:54:29.580,108257,11288,11448,55711,96084
2025-05-27 12:54:29.592,108260,11289,11441,55702,96057
2025-05-27 12:54:29.600,108255,11277,11443,55695,96033
2025-05-27 12:54:29.612,108265,11275,11440,55687,96005
2025-05-27 12:54:29.616,108265,11275,11440,55687,96005
2025-05-27 12:54:29.620,108259,11282,11425,55680,95982
2025-05-27 12:54:29.635,108274,11277,11423,55701,95980
2025-05-27 12:54:29.641,108286,11281,11424,55712,95968
2025-05-27 12:54:29.653,108295,11282,11418,55718,95982
2025-05-27 12:54:29.661,108288,11272,11415,55719,95970
2025-05-27 12:54:29.673,108304,11282,11418,55725,95977
2025-05-27 12:54:29.680,108293,11294,11423,55733,95980
2025-05-27 12:54:29.698,108315,11278,11419,55742,95975
2025-05-27 12:54:29.701,108299,11284,11404,55723,95973
2025-05-27 12:54:29.713,108309,11283,11413,55750,95987
2025-05-27 12:54:29.720,108324,11288,11398,55747,95986
2025-05-27 12:54:29.733,108335,11294,11399,55756,96003
2025-05-27 12:54:29.740,108311,11286,11403,55747,95994
2025-05-27 12:54:29.762,108326,11290,11392,55766,95999
2025-05-27 12:54:29.763,108326,11300,11391,55761,95991
2025-05-27 12:54:29.772,108342,11305,11394,55767,95998
2025-05-27 12:54:29.780,108341,11298,11400,55776,96009
2025-05-27 12:54:29.792,108351,11300,11395,55785,96013
2025-05-27 12:54:29.804,108369,11300,11387,55798,96036
2025-05-27 12:54:29.824,108359,11310,11394,55798,96049
2025-05-27 12:54:29.826,108364,11312,11397,55807,96051
2025-05-27 12:54:29.832,108360,11323,11408,55812,96044
2025-05-27 12:54:29.844,108366,11320,11399,55814,96054
2025-05-27 12:54:29.852,108371,11320,11394,55813,96060
2025-05-27 12:54:29.864,108378,11322,11393,55809,96075
2025-05-27 12:54:29.873,108386,11322,11408,55810,96076
2025-05-27 12:54:29.888,108374,11324,11401,55816,96067
2025-05-27 12:54:29.892,108371,11325,11397,55806,96061
2025-05-27 12:54:29.904,108377,11319,11389,55810,96067
2025-05-27 12:54:29.912,108386,11330,11393,55798,96045
2025-05-27 12:54:29.924,108369,11327,11387,55807,96061
2025-05-27 12:54:29.931,108376,11328,11387,55801,96052
2025-05-27 12:54:29.951,108367,11315,11389,55805,96050
2025-05-27 12:54:29.953,108380,11329,11378,55796,96041
2025-05-27 12:54:29.964,108368,11320,11385,55783,96032
2025-05-27 12:54:29.972,108363,11326,11383,55791,96022
2025-05-27 12:54:29.984,108347,11321,11374,55779,96016
2025-05-27 12:54:29.992,108388,11313,11368,55770,95993
2025-05-27 12:54:30.014,108364,11314,11364,55763,95981
2025-05-27 12:54:30.015,108368,11304,11361,55762,95966
2025-05-27 12:54:30.024,108363,11303,11347,55755,95964
2025-05-27 12:54:30.032,108361,11301,11349,55740,95943
2025-05-27 12:54:30.045,108364,11306,11353,55744,95929
2025-05-27 12:54:30.052,108364,11304,11354,55738,95919
2025-05-27 12:54:30.078,108350,11312,11348,55735,95928
2025-05-27 12:54:30.080,108373,11299,11348,55744,95932
2025-05-27 12:54:30.084,108359,11312,11349,55736,95906
2025-05-27 12:54:30.096,108372,11294,11344,55746,95919
2025-05-27 12:54:30.104,108388,11315,11346,55755,95921
2025-05-27 12:54:30.117,108384,11315,11340,55740,95912
2025-05-27 12:54:30.124,108375,11304,11355,55744,95907
2025-05-27 12:54:30.145,108376,11317,11346,55755,95909
2025-05-27 12:54:30.147,108369,11313,11343,55743,95906
2025-05-27 12:54:30.156,108377,11308,11355,55737,95884
2025-05-27 12:54:30.164,108372,11303,11354,55748,95888
2025-05-27 12:54:30.176,108372,11313,11346,55756,95880
2025-05-27 12:54:30.184,108358,11309,11344,55724,95882
2025-05-27 12:54:30.209,108350,11312,11340,55719,95862
2025-05-27 12:54:30.210,108330,11314,11337,55730,95850
2025-05-27 12:54:30.216,108289,11297,11324,55708,95838
2025-05-27 12:54:30.225,108248,11293,11305,55717,95818
2025-05-27 12:54:30.237,108221,11296,11305,55709,95821
2025-05-27 12:54:30.244,108188,11300,11308,55689,95797
2025-05-27 12:54:30.256,108139,11285,11294,55682,95775
2025-05-27 12:54:30.272,108071,11275,11280,55676,95735
2025-05-27 12:54:30.276,108044,11268,11272,55645,95683
2025-05-27 12:54:30.283,108002,11258,11265,55626,95666
2025-05-27 12:54:30.296,107981,11255,11255,55622,95620
2025-05-27 12:54:30.304,107977,11250,11252,55617,95606
2025-05-27 12:54:30.316,107988,11254,11258,55632,95569
2025-05-27 12:54:30.335,107999,11258,11255,55648,95569
2025-05-27 12:54:30.336,108040,11254,11268,55659,95579
2025-05-27 12:54:30.349,108084,11277,11265,55708,95609
2025-05-27 12:54:30.356,108135,11298,11270,55746,95642
2025-05-27 12:54:30.369,108187,11308,11297,55780,95702
2025-05-27 12:54:30.376,108251,11326,11307,55824,95723
2025-05-27 12:54:30.399,108288,11338,11312,55842,95785
2025-05-27 12:54:30.400,108340,11346,11320,55877,95853
2025-05-27 12:54:30.408,108363,11369,11338,55890,95880
2025-05-27 12:54:30.416,108406,11382,11345,55915,95920
2025-05-27 12:54:30.427,108422,11386,11340,55932,95934
2025-05-27 12:54:30.436,108434,11392,11351,55934,95965
2025-05-27 12:54:30.463,108427,11406,11356,55932,95968
2025-05-27 12:54:30.464,108452,11428,11367,55931,95963
2025-05-27 12:54:30.468,108441,11416,11364,55929,95965
2025-05-27 12:54:30.476,108449,11416,11362,55924,95963
2025-05-27 12:54:30.488,108451,11425,11367,55933,95963
2025-05-27 12:54:30.496,108441,11422,11366,55934,95965
2025-05-27 12:54:30.508,108455,11423,11366,55944,95954
2025-05-27 12:54:30.526,108465,11428,11367,55945,95967
2025-05-27 12:54:30.528,108465,11429,11368,55957,95992
2025-05-27 12:54:30.537,108487,11429,11361,55987,95999
2025-05-27 12:54:30.548,108486,11436,11360,55996,96029
2025-05-27 12:54:30.556,108510,11445,11372,56015,96042
2025-05-27 12:54:30.568,108523,11449,11375,56026,96060
2025-05-27 12:54:30.590,108539,11456,11366,56025,96095
2025-05-27 12:54:30.591,108538,11457,11371,56038,96092
2025-05-27 12:54:30.600,108550,11466,11363,56039,96112
2025-05-27 12:54:30.608,108543,11462,11363,56056,96145
2025-05-27 12:54:30.620,108562,11467,11357,56063,96129
2025-05-27 12:54:30.627,108574,11472,11364,56073,96137
2025-05-27 12:54:30.656,108600,11471,11370,56082,96164
2025-05-27 12:54:30.658,108624,11471,11364,56105,96177
2025-05-27 12:54:30.660,108660,11476,11376,56113,96204
2025-05-27 12:54:30.668,108692,11491,11388,56144,96225
2025-05-27 12:54:30.680,108740,11507,11387,56149,96262
2025-05-27 12:54:30.688,108755,11513,11400,56185,96310
2025-05-27 12:54:30.700,108790,11523,11405,56197,96316
2025-05-27 12:54:30.723,108830,11529,11415,56219,96373
2025-05-27 12:54:30.724,108860,11544,11423,56250,96394
2025-05-27 12:54:30.728,108891,11546,11430,56259,96441
2025-05-27 12:54:30.739,108910,11563,11447,56288,96480
2025-05-27 12:54:30.748,108931,11571,11442,56321,96515
2025-05-27 12:54:30.760,108938,11577,11450,56332,96581
2025-05-27 12:54:30.768,108941,11596,11463,56350,96632
2025-05-27 12:54:30.788,108954,11608,11463,56368,96659
2025-05-27 12:54:30.790,108961,11601,11479,56392,96704
2025-05-27 12:54:30.800,108977,11622,11476,56392,96744
2025-05-27 12:54:30.808,108961,11618,11476,56403,96775
2025-05-27 12:54:30.821,108959,11629,11482,56423,96824
2025-05-27 12:54:30.824,108959,11629,11482,56423,96824
2025-05-27 12:54:30.828,108976,11630,11489,56444,96876
2025-05-27 12:54:30.856,108965,11616,11492,56480,96906
2025-05-27 12:54:30.857,108950,11632,11497,56489,96926
2025-05-27 12:54:30.860,108962,11633,11493,56493,96932
2025-05-27 12:54:30.872,108976,11631,11481,56490,96929
2025-05-27 12:54:30.879,108983,11631,11489,56490,96971
2025-05-27 12:54:30.892,108955,11627,11487,56486,96960
2025-05-27 12:54:30.900,108972,11628,11476,56486,96955
2025-05-27 12:54:30.923,108927,11627,11474,56475,96956
2025-05-27 12:54:30.925,108951,11613,11472,56451,96936
2025-05-27 12:54:30.933,108927,11605,11464,56454,96934
2025-05-27 12:54:30.940,108921,11607,11465,56429,96898
2025-05-27 12:54:30.952,108907,11608,11460,56439,96906
2025-05-27 12:54:30.960,108894,11590,11454,56435,96883
2025-05-27 12:54:30.972,108895,11597,11453,56427,96871
2025-05-27 12:54:30.986,108855,11592,11452,56420,96859
2025-05-27 12:54:30.992,108875,11572,11440,56417,96857
2025-05-27 12:54:31.000,108863,11575,11429,56410,96858
2025-05-27 12:54:31.012,108872,11575,11443,56418,96823
2025-05-27 12:54:31.019,108875,11581,11435,56423,96839
2025-05-27 12:54:31.032,108885,11580,11442,56429,96841
2025-05-27 12:54:31.049,108875,11577,11442,56446,96858
2025-05-27 12:54:31.052,108891,11594,11443,56454,96891
2025-05-27 12:54:31.060,108900,11587,11449,56482,96887
2025-05-27 12:54:31.072,108908,11604,11451,56491,96902
2025-05-27 12:54:31.080,108921,11602,11454,56498,96933
2025-05-27 12:54:31.091,108957,11608,11453,56517,96959
2025-05-27 12:54:31.112,108953,11609,11455,56514,96966
2025-05-27 12:54:31.113,108953,11618,11459,56524,96981
2025-05-27 12:54:31.124,108969,11620,11462,56515,97004
2025-05-27 12:54:31.132,108949,11620,11466,56543,97005
2025-05-27 12:54:31.143,108983,11615,11468,56541,97009
2025-05-27 12:54:31.152,108987,11629,11462,56549,97010
2025-05-27 12:54:31.177,108988,11624,11465,56545,97027
2025-05-27 12:54:31.178,109005,11623,11460,56543,97026
2025-05-27 12:54:31.184,109026,11626,11467,56539,97012
2025-05-27 12:54:31.192,109027,11625,11449,56552,97005
2025-05-27 12:54:31.204,109017,11628,11467,56542,97006
2025-05-27 12:54:31.212,109057,11630,11461,56556,96990
2025-05-27 12:54:31.224,109053,11622,11461,56549,97005
2025-05-27 12:54:31.239,109076,11625,11463,56564,97020
2025-05-27 12:54:31.243,109069,11627,11480,56567,97040
2025-05-27 12:54:31.251,109094,11646,11476,56575,97035
2025-05-27 12:54:31.263,109083,11640,11479,56589,97061
2025-05-27 12:54:31.271,109110,11648,11476,56593,97060
2025-05-27 12:54:31.283,109096,11638,11486,56585,97057
2025-05-27 12:54:31.302,109104,11642,11484,56593,97041
2025-05-27 12:54:31.304,109107,11641,11471,56593,97061
2025-05-27 12:54:31.311,109104,11636,11478,56595,97060
2025-05-27 12:54:31.324,109098,11640,11481,56600,97066
2025-05-27 12:54:31.331,109122,11647,11457,56606,97044
2025-05-27 12:54:31.344,109123,11653,11466,56603,97081
2025-05-27 12:54:31.351,109128,11638,11463,56614,97058
2025-05-27 12:54:31.366,109128,11645,11460,56615,97061
2025-05-27 12:54:31.372,109139,11652,11451,56623,97057
2025-05-27 12:54:31.383,109134,11643,11449,56619,97061
2025-05-27 12:54:31.395,109150,11630,11438,56639,97087
2025-05-27 12:54:31.404,109163,11651,11440,56664,97080
2025-05-27 12:54:31.429,109164,11641,11434,56657,97114
2025-05-27 12:54:31.430,109178,11661,11440,56670,97088
2025-05-27 12:54:31.436,109201,11644,11434,56680,97099
2025-05-27 12:54:31.444,109210,11678,11439,56701,97129
2025-05-27 12:54:31.456,109216,11661,11442,56711,97141
2025-05-27 12:54:31.464,109226,11677,11436,56713,97160
2025-05-27 12:54:31.475,109236,11667,11454,56711,97167
2025-05-27 12:54:31.492,109224,11675,11437,56713,97177
2025-05-27 12:54:31.496,109227,11658,11432,56710,97174
2025-05-27 12:54:31.504,109232,11659,11437,56711,97170
2025-05-27 12:54:31.515,109225,11670,11429,56707,97156
2025-05-27 12:54:31.523,109238,11660,11425,56702,97146
2025-05-27 12:54:31.536,109252,11658,11415,56698,97125
2025-05-27 12:54:31.554,109252,11640,11427,56686,97121
2025-05-27 12:54:31.556,109234,11645,11421,56694,97112
2025-05-27 12:54:31.563,109236,11639,11414,56704,97120
2025-05-27 12:54:31.576,109264,11645,11424,56708,97104
2025-05-27 12:54:31.584,109260,11629,11407,56709,97098
2025-05-27 12:54:31.595,109278,11650,11416,56731,97111
2025-05-27 12:54:31.617,109279,11637,11412,56727,97120
2025-05-27 12:54:31.618,109273,11640,11407,56729,97111
2025-05-27 12:54:31.627,109288,11645,11417,56730,97133
2025-05-27 12:54:31.635,109296,11644,11422,56728,97114
2025-05-27 12:54:31.644,109305,11646,11405,56732,97117
2025-05-27 12:54:31.656,109308,11642,11415,56741,97109
2025-05-27 12:54:31.663,109314,11639,11409,56744,97122
2025-05-27 12:54:31.681,109327,11638,11406,56745,97108
2025-05-27 12:54:31.687,109350,11657,11408,56751,97126
2025-05-27 12:54:31.696,109354,11647,11409,56764,97136
2025-05-27 12:54:31.708,109360,11672,11424,56770,97127
2025-05-27 12:54:31.716,109374,11672,11419,56797,97162
2025-05-27 12:54:31.727,109395,11673,11418,56807,97173
2025-05-27 12:54:31.744,109422,11685,11429,56825,97188
2025-05-27 12:54:31.748,109421,11698,11431,56835,97212
2025-05-27 12:54:31.756,109434,11712,11434,56853,97237
2025-05-27 12:54:31.767,109471,11703,11430,56866,97245
2025-05-27 12:54:31.775,109478,11718,11439,56877,97280
2025-05-27 12:54:31.788,109496,11724,11462,56900,97305
2025-05-27 12:54:31.807,109497,11748,11460,56904,97309
2025-05-27 12:54:31.808,109497,11742,11462,56918,97343
2025-05-27 12:54:31.815,109496,11766,11460,56925,97354
2025-05-27 12:54:31.827,109511,11746,11467,56929,97361
2025-05-27 12:54:31.835,109515,11766,11476,56933,97365
2025-05-27 12:54:31.848,109516,11753,11458,56932,97374
2025-05-27 12:54:31.855,109523,11767,11463,56944,97382
2025-05-27 12:54:31.870,109520,11759,11465,56946,97391
2025-05-27 12:54:31.875,109520,11763,11479,56941,97396
2025-05-27 12:54:31.888,109533,11757,11471,56958,97383
2025-05-27 12:54:31.895,109547,11766,11473,56953,97382
2025-05-27 12:54:31.907,109544,11771,11487,56955,97397
2025-05-27 12:54:31.916,109546,11770,11477,56951,97404
2025-05-27 12:54:31.933,109531,11774,11488,56975,97408
2025-05-27 12:54:31.940,109565,11773,11480,56973,97442
2025-05-27 12:54:31.947,109560,11780,11493,56973,97439
2025-05-27 12:54:31.959,109552,11793,11482,56992,97458
2025-05-27 12:54:31.968,109569,11786,11500,56985,97449
2025-05-27 12:54:31.979,109562,11799,11487,56989,97455
2025-05-27 12:54:31.996,109565,11795,11508,56981,97453
2025-05-27 12:54:31.999,109566,11794,11489,56990,97472
2025-05-27 12:54:32.008,109575,11790,11498,56989,97473
2025-05-27 12:54:32.019,109576,11814,11490,56989,97468
2025-05-27 12:54:32.032,109577,11798,11499,56994,97470
2025-05-27 12:54:32.033,109577,11798,11499,56994,97470
2025-05-27 12:54:32.039,109586,11796,11485,57001,97491
2025-05-27 12:54:32.060,109605,11796,11477,57030,97492
2025-05-27 12:54:32.061,109599,11820,11484,57023,97506
2025-05-27 12:54:32.068,109601,11809,11479,57036,97527
2025-05-27 12:54:32.079,109593,11800,11466,57031,97543
2025-05-27 12:54:32.087,109588,11789,11477,57031,97553
2025-05-27 12:54:32.100,109592,11790,11447,57030,97534
2025-05-27 12:54:32.107,109581,11770,11441,57020,97521
2025-05-27 12:54:32.125,109574,11782,11425,57002,97511
2025-05-27 12:54:32.128,109571,11762,11422,56998,97494
2025-05-27 12:54:32.139,109582,11770,11419,56992,97475
2025-05-27 12:54:32.148,109584,11768,11420,56999,97465
2025-05-27 12:54:32.160,109577,11768,11422,56996,97470
2025-05-27 12:54:32.167,109598,11762,11397,57016,97470
2025-05-27 12:54:32.187,109589,11763,11400,57023,97479
2025-05-27 12:54:32.191,109609,11772,11403,57039,97512
2025-05-27 12:54:32.199,109612,11760,11409,57047,97512
2025-05-27 12:54:32.212,109630,11768,11405,57053,97537
2025-05-27 12:54:32.219,109617,11767,11412,57039,97551
2025-05-27 12:54:32.231,109608,11759,11414,57044,97539
2025-05-27 12:54:32.251,109596,11754,11398,57039,97533
2025-05-27 12:54:32.252,109605,11758,11403,57040,97522
2025-05-27 12:54:32.260,109601,11753,11398,57037,97525
2025-05-27 12:54:32.271,109594,11748,11405,57032,97525
2025-05-27 12:54:32.280,109617,11739,11398,57055,97512
2025-05-27 12:54:32.291,109608,11745,11408,57050,97528
2025-05-27 12:54:32.299,109634,11752,11399,57073,97541
2025-05-27 12:54:32.314,109652,11765,11398,57096,97548
2025-05-27 12:54:32.319,109644,11762,11402,57107,97585
2025-05-27 12:54:32.331,109659,11766,11408,57111,97610
2025-05-27 12:54:32.339,109678,11768,11406,57106,97631
2025-05-27 12:54:32.351,109683,11783,11422,57122,97637
2025-05-27 12:54:32.359,109670,11772,11404,57133,97662
2025-05-27 12:54:32.376,109675,11777,11402,57165,97679
2025-05-27 12:54:32.379,109682,11779,11400,57170,97693
2025-05-27 12:54:32.391,109683,11780,11404,57174,97721
2025-05-27 12:54:32.399,109680,11778,11404,57170,97719
2025-05-27 12:54:32.411,109670,11780,11408,57172,97746
2025-05-27 12:54:32.419,109689,11787,11399,57175,97744
2025-05-27 12:54:32.440,109703,11787,11405,57184,97752
2025-05-27 12:54:32.441,109681,11783,11402,57186,97764
2025-05-27 12:54:32.451,109707,11771,11402,57190,97758
2025-05-27 12:54:32.463,109690,11795,11394,57186,97762
2025-05-27 12:54:32.471,109696,11785,11411,57183,97778
2025-05-27 12:54:32.484,109695,11786,11402,57189,97767
2025-05-27 12:54:32.502,109721,11792,11412,57211,97791
2025-05-27 12:54:32.504,109715,11796,11400,57201,97800
2025-05-27 12:54:32.511,109727,11797,11401,57207,97835
2025-05-27 12:54:32.523,109721,11796,11412,57218,97825
2025-05-27 12:54:32.531,109715,11791,11407,57222,97827
2025-05-27 12:54:32.543,109706,11792,11408,57209,97805
2025-05-27 12:54:32.551,109701,11789,11412,57205,97828
2025-05-27 12:54:32.576,109709,11783,11395,57195,97797
2025-05-27 12:54:32.577,109706,11782,11397,57191,97799
2025-05-27 12:54:32.583,109703,11786,11395,57200,97785
2025-05-27 12:54:32.591,109707,11775,11398,57194,97777
2025-05-27 12:54:32.603,109708,11778,11401,57184,97775
2025-05-27 12:54:32.612,109712,11774,11405,57177,97778
2025-05-27 12:54:32.624,109707,11764,11397,57188,97773
2025-05-27 12:54:32.641,109718,11770,11395,57185,97775
2025-05-27 12:54:32.643,109709,11774,11391,57191,97761
2025-05-27 12:54:32.650,109714,11792,11414,57194,97783
2025-05-27 12:54:32.663,109720,11783,11406,57206,97780
2025-05-27 12:54:32.671,109742,11791,11407,57216,97793
2025-05-27 12:54:32.683,109764,11784,11404,57240,97827
2025-05-27 12:54:32.704,109765,11791,11425,57253,97851
2025-05-27 12:54:32.705,109789,11795,11412,57264,97882
2025-05-27 12:54:32.711,109799,11804,11423,57285,97888
2025-05-27 12:54:32.723,109819,11813,11438,57284,97927
2025-05-27 12:54:32.735,109835,11823,11436,57305,97956
2025-05-27 12:54:32.743,109852,11828,11442,57328,97961
2025-05-27 12:54:32.767,109847,11831,11440,57304,98013
2025-05-27 12:54:32.768,109806,11836,11444,57308,98021
2025-05-27 12:54:32.775,109789,11848,11437,57283,98046
2025-05-27 12:54:32.783,109768,11844,11439,57257,98062
2025-05-27 12:54:32.795,109729,11840,11432,57254,98063
2025-05-27 12:54:32.803,109714,11841,11451,57240,98060
2025-05-27 12:54:32.816,109690,11835,11450,57238,98061
2025-05-27 12:54:32.830,109672,11843,11440,57235,98060
2025-05-27 12:54:32.835,109702,11835,11440,57232,98067
2025-05-27 12:54:32.842,109706,11828,11436,57256,98090
2025-05-27 12:54:32.856,109737,11826,11435,57275,98111
2025-05-27 12:54:32.863,109774,11823,11434,57266,98110
2025-05-27 12:54:32.874,109795,11824,11436,57268,98138
2025-05-27 12:54:32.892,109820,11805,11430,57273,98109
2025-05-27 12:54:32.895,109832,11796,11420,57267,98109
2025-05-27 12:54:32.902,109829,11787,11416,57261,98096
2025-05-27 12:54:32.915,109851,11783,11403,57247,98078
2025-05-27 12:54:32.923,109869,11760,11399,57257,98067
2025-05-27 12:54:32.935,109871,11749,11401,57270,98065
2025-05-27 12:54:32.956,109879,11748,11374,57266,98053
2025-05-27 12:54:32.957,109881,11739,11386,57239,98042
2025-05-27 12:54:32.963,109883,11730,11372,57247,98037
2025-05-27 12:54:32.975,109867,11723,11366,57219,98001
2025-05-27 12:54:32.983,109864,11710,11356,57227,97992
2025-05-27 12:54:32.995,109862,11702,11348,57202,97977
2025-05-27 12:54:33.019,109861,11693,11345,57192,97939
2025-05-27 12:54:33.020,109838,11684,11335,57184,97916
2025-05-27 12:54:33.027,109823,11674,11328,57163,97892
2025-05-27 12:54:33.035,109825,11672,11319,57168,97867
2025-05-27 12:54:33.039,109825,11672,11319,57168,97867
2025-05-27 12:54:33.047,109823,11652,11307,57171,97829
2025-05-27 12:54:33.055,109849,11648,11301,57133,97825
2025-05-27 12:54:33.067,109843,11639,11305,57149,97826
2025-05-27 12:54:33.082,109857,11647,11296,57143,97814
2025-05-27 12:54:33.087,109858,11640,11288,57162,97817
2025-05-27 12:54:33.095,109882,11640,11298,57146,97810
2025-05-27 12:54:33.106,109887,11633,11297,57160,97821
2025-05-27 12:54:33.115,109892,11635,11294,57136,97813
2025-05-27 12:54:33.127,109895,11643,11280,57161,97801
2025-05-27 12:54:33.146,109903,11625,11277,57139,97812
2025-05-27 12:54:33.147,109905,11626,11280,57136,97771
2025-05-27 12:54:33.155,109910,11625,11282,57140,97796
2025-05-27 12:54:33.166,109890,11632,11282,57142,97801
2025-05-27 12:54:33.174,109890,11627,11276,57157,97810
2025-05-27 12:54:33.187,109852,11648,11275,57139,97811
2025-05-27 12:54:33.194,109846,11630,11276,57162,97835
2025-05-27 12:54:33.210,109810,11641,11276,57158,97843
2025-05-27 12:54:33.215,109803,11641,11282,57173,97858
2025-05-27 12:54:33.227,109805,11633,11280,57187,97858
2025-05-27 12:54:33.239,109795,11636,11275,57174,97871
2025-05-27 12:54:33.247,109802,11639,11284,57198,97859
2025-05-27 12:54:33.255,109779,11642,11290,57190,97860
2025-05-27 12:54:33.272,109767,11647,11285,57249,97850
2025-05-27 12:54:33.279,109684,11667,11311,57316,97921
2025-05-27 12:54:33.287,109549,11702,11342,57423,98050
2025-05-27 12:54:33.299,109394,11741,11348,57480,98210
2025-05-27 12:54:33.307,109265,11754,11361,57519,98341
2025-05-27 12:54:33.318,109169,11749,11346,57524,98385
2025-05-27 12:54:33.336,109082,11733,11335,57490,98406
2025-05-27 12:54:33.338,109006,11729,11313,57441,98362
2025-05-27 12:54:33.347,108935,11718,11311,57426,98313
2025-05-27 12:54:33.358,108884,11709,11288,57382,98270
2025-05-27 12:54:33.366,108815,11697,11265,57355,98251
2025-05-27 12:54:33.379,108759,11680,11267,57307,98185
2025-05-27 12:54:33.399,108697,11659,11253,57269,98108
2025-05-27 12:54:33.401,108677,11641,11235,57245,98055
2025-05-27 12:54:33.406,108668,11622,11216,57203,98015
2025-05-27 12:54:33.419,108643,11601,11206,57130,97933
2025-05-27 12:54:33.426,108656,11568,11181,57093,97843
2025-05-27 12:54:33.439,108719,11555,11166,57055,97732
2025-05-27 12:54:33.447,108805,11530,11163,57015,97672
2025-05-27 12:54:33.462,108914,11517,11161,56988,97592
2025-05-27 12:54:33.467,109025,11505,11168,57000,97551
2025-05-27 12:54:33.478,109145,11510,11157,56998,97513
2025-05-27 12:54:33.487,109285,11510,11166,57020,97509
2025-05-27 12:54:33.499,109393,11516,11181,57005,97480
2025-05-27 12:54:33.506,109493,11517,11199,57035,97512
2025-05-27 12:54:33.525,109608,11526,11212,57047,97502
2025-05-27 12:54:33.531,109698,11538,11221,57070,97551
2025-05-27 12:54:33.539,109788,11541,11240,57097,97576
2025-05-27 12:54:33.551,109856,11566,11241,57113,97602
2025-05-27 12:54:33.559,109918,11571,11248,57122,97613
2025-05-27 12:54:33.570,109962,11583,11269,57126,97644
2025-05-27 12:54:33.588,109986,11597,11270,57157,97693
2025-05-27 12:54:33.591,110020,11598,11268,57176,97680
2025-05-27 12:54:33.598,110028,11613,11267,57197,97737
2025-05-27 12:54:33.611,110038,11616,11282,57226,97761
2025-05-27 12:54:33.619,110033,11632,11281,57248,97800
2025-05-27 12:54:33.630,110041,11633,11275,57274,97822
2025-05-27 12:54:33.650,110045,11644,11283,57290,97878
2025-05-27 12:54:33.652,110064,11654,11279,57302,97902
2025-05-27 12:54:33.659,110082,11648,11283,57322,97930
2025-05-27 12:54:33.670,110074,11648,11272,57351,97960
2025-05-27 12:54:33.679,110082,11652,11267,57351,97973
2025-05-27 12:54:33.690,110082,11638,11274,57343,97994
2025-05-27 12:54:33.699,110090,11643,11268,57356,98000
2025-05-27 12:54:33.714,110096,11644,11266,57359,98022
2025-05-27 12:54:33.718,110090,11645,11262,57368,98029
2025-05-27 12:54:33.731,110078,11629,11262,57367,98031
2025-05-27 12:54:33.739,110080,11630,11251,57370,98027
2025-05-27 12:54:33.751,110070,11629,11255,57370,98040
2025-05-27 12:54:33.758,110073,11622,11249,57369,98057
2025-05-27 12:54:33.779,110075,11617,11251,57374,98045
2025-05-27 12:54:33.780,110055,11621,11244,57368,98059
2025-05-27 12:54:33.791,110069,11622,11239,57379,98052
2025-05-27 12:54:33.803,110057,11618,11250,57379,98069
2025-05-27 12:54:33.811,110051,11613,11252,57375,98072
2025-05-27 12:54:33.822,110061,11624,11244,57378,98080
2025-05-27 12:54:33.841,110069,11615,11248,57384,98079
2025-05-27 12:54:33.843,110067,11610,11250,57390,98107
2025-05-27 12:54:33.850,110067,11608,11239,57382,98077
2025-05-27 12:54:33.863,110060,11609,11246,57385,98106
2025-05-27 12:54:33.871,110054,11598,11241,57362,98082
2025-05-27 12:54:33.882,110033,11597,11233,57350,98075
2025-05-27 12:54:33.890,110022,11576,11237,57345,98055
2025-05-27 12:54:33.906,110015,11580,11213,57323,98022
2025-05-27 12:54:33.910,110015,11577,11219,57317,98006
2025-05-27 12:54:33.923,110019,11570,11219,57306,97994
2025-05-27 12:54:33.930,110018,11567,11212,57314,97992
2025-05-27 12:54:33.942,110015,11566,11201,57323,97983
2025-05-27 12:54:33.951,110007,11573,11215,57319,97978
2025-05-27 12:54:33.969,110018,11571,11208,57317,97981
2025-05-27 12:54:33.970,110026,11566,11208,57353,97997
2025-05-27 12:54:33.983,110016,11573,11218,57340,98015
2025-05-27 12:54:33.990,110013,11574,11215,57351,98025
2025-05-27 12:54:34.003,110007,11578,11211,57353,98028
2025-05-27 12:54:34.010,110020,11576,11220,57344,98025
2025-05-27 12:54:34.033,110010,11577,11220,57349,98040
2025-05-27 12:54:34.034,110008,11568,11222,57346,98031
2025-05-27 12:54:34.042,110022,11575,11219,57350,98054
2025-05-27 12:54:34.051,110023,11567,11214,57348,98037
2025-05-27 12:54:34.062,110016,11563,11221,57334,98021
2025-05-27 12:54:34.075,110009,11577,11219,57339,98037
2025-05-27 12:54:34.096,110014,11564,11215,57338,98019
2025-05-27 12:54:34.097,110028,11565,11221,57346,98030
2025-05-27 12:54:34.103,110013,11569,11220,57342,98032
2025-05-27 12:54:34.114,110017,11563,11220,57342,98040
2025-05-27 12:54:34.122,110029,11565,11224,57331,98031
2025-05-27 12:54:34.135,110023,11560,11217,57331,98014
2025-05-27 12:54:34.142,110014,11562,11209,57320,97996
2025-05-27 12:54:34.159,110012,11563,11221,57317,98017
2025-05-27 12:54:34.162,110006,11545,11215,57302,97998
2025-05-27 12:54:34.175,110014,11554,11222,57289,97967
2025-05-27 12:54:34.182,110004,11548,11222,57290,97965
2025-05-27 12:54:34.194,110007,11541,11212,57279,97971
2025-05-27 12:54:34.202,110002,11550,11221,57286,97953
2025-05-27 12:54:34.222,109990,11546,11216,57284,97911
2025-05-27 12:54:34.223,110003,11554,11222,57278,97928
2025-05-27 12:54:34.235,110006,11544,11220,57288,97942
2025-05-27 12:54:34.246,110020,11554,11233,57295,97951
2025-05-27 12:54:34.247,110020,11554,11233,57295,97951
2025-05-27 12:54:34.254,110028,11553,11233,57308,97970
2025-05-27 12:54:34.262,110012,11556,11239,57299,97965
2025-05-27 12:54:34.286,110015,11552,11228,57305,97963
2025-05-27 12:54:34.287,110018,11559,11244,57309,97982
2025-05-27 12:54:34.294,110027,11566,11238,57316,97967
2025-05-27 12:54:34.302,110018,11558,11247,57317,97987
2025-05-27 12:54:34.314,110040,11569,11249,57326,98002
2025-05-27 12:54:34.327,110039,11563,11254,57327,97988
2025-05-27 12:54:34.334,110015,11571,11247,57335,98015
2025-05-27 12:54:34.350,110042,11580,11252,57328,98024
2025-05-27 12:54:34.354,110032,11558,11258,57306,98010
2025-05-27 12:54:34.367,110019,11563,11255,57309,98006
2025-05-27 12:54:34.374,110025,11567,11252,57304,97992
2025-05-27 12:54:34.386,110008,11550,11243,57297,97976
2025-05-27 12:54:34.394,110004,11548,11250,57295,97969
2025-05-27 12:54:34.412,109996,11548,11239,57272,97957
2025-05-27 12:54:34.414,109997,11539,11233,57284,97954
2025-05-27 12:54:34.426,109992,11535,11224,57282,97935
2025-05-27 12:54:34.435,109994,11521,11229,57275,97944
2025-05-27 12:54:34.446,110001,11528,11212,57278,97922
2025-05-27 12:54:34.455,109972,11518,11201,57264,97926
2025-05-27 12:54:34.476,109979,11510,11202,57264,97917
2025-05-27 12:54:34.477,109966,11502,11192,57252,97914
2025-05-27 12:54:34.487,109971,11495,11192,57250,97888
2025-05-27 12:54:34.494,109967,11493,11186,57240,97900
2025-05-27 12:54:34.507,109978,11494,11165,57263,97894
2025-05-27 12:54:34.514,109959,11482,11180,57245,97874
2025-05-27 12:54:34.540,109957,11481,11172,57251,97871
2025-05-27 12:54:34.541,109959,11476,11173,57252,97866
2025-05-27 12:54:34.546,109966,11475,11179,57255,97873
2025-05-27 12:54:34.555,109956,11477,11178,57256,97886
2025-05-27 12:54:34.567,109975,11472,11176,57255,97915
2025-05-27 12:54:34.579,109945,11474,11163,57254,97895
2025-05-27 12:54:34.586,109970,11467,11163,57250,97882
2025-05-27 12:54:34.602,109937,11458,11175,57244,97878
2025-05-27 12:54:34.606,109937,11467,11163,57233,97872
2025-05-27 12:54:34.618,109932,11443,11166,57237,97858
2025-05-27 12:54:34.626,109927,11457,11162,57230,97826
2025-05-27 12:54:34.638,109924,11457,11170,57222,97843
2025-05-27 12:54:34.646,109921,11453,11157,57211,97829
2025-05-27 12:54:34.664,109921,11456,11154,57208,97837
2025-05-27 12:54:34.666,109899,11447,11161,57210,97829
2025-05-27 12:54:34.677,109908,11444,11150,57227,97841
2025-05-27 12:54:34.686,109907,11445,11151,57219,97835
2025-05-27 12:54:34.698,109918,11441,11154,57213,97831
2025-05-27 12:54:34.706,109923,11452,11161,57219,97815
2025-05-27 12:54:34.729,109921,11433,11151,57219,97813
2025-05-27 12:54:34.730,109928,11439,11157,57220,97840
2025-05-27 12:54:34.738,109942,11445,11161,57224,97823
2025-05-27 12:54:34.747,109925,11427,11156,57218,97811
2025-05-27 12:54:34.758,109928,11437,11154,57229,97825
2025-05-27 12:54:34.767,109912,11431,11157,57217,97826
2025-05-27 12:54:34.792,109912,11431,11154,57218,97819
2025-05-27 12:54:34.793,109908,11437,11161,57216,97830
2025-05-27 12:54:34.799,109912,11435,11164,57199,97813
2025-05-27 12:54:34.807,109909,11435,11154,57196,97800
2025-05-27 12:54:34.817,109893,11429,11160,57208,97780
2025-05-27 12:54:34.826,109907,11433,11159,57201,97805
2025-05-27 12:54:34.838,109900,11421,11151,57201,97793
2025-05-27 12:54:34.854,109903,11437,11158,57181,97785
2025-05-27 12:54:34.858,109912,11431,11168,57197,97777
2025-05-27 12:54:34.870,109901,11425,11157,57192,97786
2025-05-27 12:54:34.878,109920,11430,11157,57202,97788
2025-05-27 12:54:34.891,109894,11427,11165,57202,97786
2025-05-27 12:54:34.898,109906,11438,11160,57191,97780
2025-05-27 12:54:34.918,109896,11433,11166,57182,97765
2025-05-27 12:54:34.919,109898,11417,11165,57179,97767
2025-05-27 12:54:34.930,109883,11420,11165,57191,97764
2025-05-27 12:54:34.938,109893,11419,11167,57189,97758
2025-05-27 12:54:34.951,109890,11420,11160,57189,97762
2025-05-27 12:54:34.958,109898,11422,11169,57174,97739
2025-05-27 12:54:34.981,109890,11426,11167,57179,97737
2025-05-27 12:54:34.983,109914,11440,11165,57172,97744
2025-05-27 12:54:34.990,109911,11425,11180,57179,97742
2025-05-27 12:54:34.998,109911,11428,11176,57182,97747
2025-05-27 12:54:35.010,109924,11429,11178,57173,97746
2025-05-27 12:54:35.018,109935,11423,11176,57194,97742
2025-05-27 12:54:35.030,109923,11433,11182,57190,97760
2025-05-27 12:54:35.046,109941,11430,11180,57197,97765
2025-05-27 12:54:35.051,109941,11433,11193,57201,97769
2025-05-27 12:54:35.058,109956,11442,11184,57215,97782
2025-05-27 12:54:35.070,109955,11438,11197,57217,97807
2025-05-27 12:54:35.079,109957,11450,11213,57217,97802
2025-05-27 12:54:35.090,109959,11454,11208,57220,97797
2025-05-27 12:54:35.109,109958,11451,11202,57229,97799
2025-05-27 12:54:35.110,109971,11449,11201,57233,97811
2025-05-27 12:54:35.122,109961,11458,11218,57234,97820
2025-05-27 12:54:35.130,109965,11447,11221,57234,97829
2025-05-27 12:54:35.142,109985,11452,11216,57234,97823
2025-05-27 12:54:35.150,109978,11454,11223,57235,97818
2025-05-27 12:54:35.171,110001,11466,11230,57247,97846
2025-05-27 12:54:35.172,109996,11462,11230,57228,97828
2025-05-27 12:54:35.182,109976,11470,11239,57229,97830
2025-05-27 12:54:35.190,110000,11462,11232,57222,97819
2025-05-27 12:54:35.203,110007,11455,11229,57226,97813
2025-05-27 12:54:35.210,109990,11449,11222,57220,97813
2025-05-27 12:54:35.235,109985,11444,11225,57220,97805
2025-05-27 12:54:35.236,109984,11450,11219,57212,97798
2025-05-27 12:54:35.242,109978,11450,11223,57215,97781
2025-05-27 12:54:35.254,109978,11448,11205,57214,97781
2025-05-27 12:54:35.255,109978,11448,11205,57214,97781
2025-05-27 12:54:35.262,109974,11430,11196,57210,97785
2025-05-27 12:54:35.270,109980,11435,11211,57211,97785
2025-05-27 12:54:35.282,109973,11426,11194,57213,97780
2025-05-27 12:54:35.298,109991,11429,11199,57225,97807
2025-05-27 12:54:35.302,109980,11424,11193,57221,97789
2025-05-27 12:54:35.309,109991,11409,11195,57226,97796
2025-05-27 12:54:35.322,109956,11417,11194,57214,97793
2025-05-27 12:54:35.330,109987,11417,11199,57218,97803
2025-05-27 12:54:35.342,109980,11407,11194,57235,97802
2025-05-27 12:54:35.361,109999,11406,11192,57228,97811
2025-05-27 12:54:35.362,109989,11423,11194,57234,97818
2025-05-27 12:54:35.373,109991,11405,11191,57230,97808
2025-05-27 12:54:35.382,109989,11411,11188,57231,97822
2025-05-27 12:54:35.394,110002,11401,11198,57233,97806
2025-05-27 12:54:35.401,109980,11398,11193,57231,97814
2025-05-27 12:54:35.424,109994,11399,11196,57230,97797
2025-05-27 12:54:35.426,109989,11399,11188,57222,97809
2025-05-27 12:54:35.434,110002,11403,11199,57234,97801
2025-05-27 12:54:35.442,109992,11414,11194,57239,97822
2025-05-27 12:54:35.453,109992,11405,11199,57233,97833
2025-05-27 12:54:35.463,110000,11401,11202,57244,97839
2025-05-27 12:54:35.488,109996,11417,11207,57229,97842
2025-05-27 12:54:35.490,109997,11403,11201,57244,97833
2025-05-27 12:54:35.494,109998,11405,11199,57250,97841
2025-05-27 12:54:35.502,110003,11415,11214,57240,97844
2025-05-27 12:54:35.514,109987,11397,11197,57248,97852
2025-05-27 12:54:35.521,110013,11395,11207,57260,97857
2025-05-27 12:54:35.534,110011,11408,11205,57255,97849
2025-05-27 12:54:35.552,110009,11410,11212,57244,97863
2025-05-27 12:54:35.554,110010,11414,11203,57249,97860
2025-05-27 12:54:35.561,110013,11396,11211,57259,97856
2025-05-27 12:54:35.574,110014,11392,11215,57250,97871
2025-05-27 12:54:35.582,110027,11412,11217,57252,97868
2025-05-27 12:54:35.593,109999,11404,11211,57257,97889
2025-05-27 12:54:35.615,110008,11399,11217,57248,97877
2025-05-27 12:54:35.617,110008,11409,11225,57247,97856
2025-05-27 12:54:35.626,110010,11404,11215,57246,97864
2025-05-27 12:54:35.634,110008,11395,11220,57250,97884
2025-05-27 12:54:35.646,110005,11401,11205,57232,97872
2025-05-27 12:54:35.653,110007,11395,11223,57238,97872
2025-05-27 12:54:35.680,110001,11407,11224,57256,97854
2025-05-27 12:54:35.681,110013,11396,11224,57243,97867
2025-05-27 12:54:35.686,110015,11403,11215,57253,97864
2025-05-27 12:54:35.694,110004,11403,11224,57257,97872
2025-05-27 12:54:35.706,110007,11417,11229,57268,97883
2025-05-27 12:54:35.714,110020,11412,11224,57266,97911
2025-05-27 12:54:35.727,110029,11416,11243,57275,97923
2025-05-27 12:54:35.745,110023,11411,11248,57275,97926
2025-05-27 12:54:35.747,110034,11419,11247,57293,97956
2025-05-27 12:54:35.754,110042,11411,11251,57281,97946
2025-05-27 12:54:35.766,110035,11418,11257,57288,97954
2025-05-27 12:54:35.773,110030,11409,11265,57287,97939
2025-05-27 12:54:35.786,110033,11410,11259,57285,97947
2025-05-27 12:54:35.793,110030,11405,11252,57275,97944
2025-05-27 12:54:35.810,110022,11407,11252,57273,97931
2025-05-27 12:54:35.814,110013,11396,11253,57250,97911
2025-05-27 12:54:35.826,110013,11404,11261,57244,97907
2025-05-27 12:54:35.834,109994,11402,11250,57237,97876
2025-05-27 12:54:35.846,109998,11398,11254,57235,97879
2025-05-27 12:54:35.853,109994,11398,11261,57237,97883
2025-05-27 12:54:35.873,109996,11397,11268,57245,97893
2025-05-27 12:54:35.875,109990,11400,11250,57243,97894
2025-05-27 12:54:35.886,110000,11396,11260,57252,97904
2025-05-27 12:54:35.897,109998,11412,11261,57257,97906
2025-05-27 12:54:35.905,109998,11401,11269,57259,97919
2025-05-27 12:54:35.918,110000,11410,11271,57255,97910
2025-05-27 12:54:35.936,109981,11403,11268,57244,97898
2025-05-27 12:54:35.938,109981,11411,11263,57243,97898
2025-05-27 12:54:35.946,109970,11413,11280,57259,97902
2025-05-27 12:54:35.957,109955,11431,11285,57299,97961
2025-05-27 12:54:35.966,109956,11460,11306,57366,98034
2025-05-27 12:54:35.977,109982,11490,11328,57469,98137
2025-05-27 12:54:36.001,109994,11538,11353,57575,98294
2025-05-27 12:54:36.002,110032,11564,11384,57702,98477
2025-05-27 12:54:36.006,110080,11593,11406,57820,98705
2025-05-27 12:54:36.018,110105,11615,11427,57916,98912
2025-05-27 12:54:36.025,110124,11631,11435,57958,99049
2025-05-27 12:54:36.037,110124,11647,11440,57983,99153
2025-05-27 12:54:36.046,110097,11619,11430,57965,99198
2025-05-27 12:54:36.065,110059,11623,11419,57913,99186
2025-05-27 12:54:36.067,110034,11592,11407,57869,99128
2025-05-27 12:54:36.078,110022,11573,11401,57812,99048
2025-05-27 12:54:36.086,109990,11560,11380,57792,98973
2025-05-27 12:54:36.098,109960,11554,11372,57769,98938
2025-05-27 12:54:36.106,109950,11540,11362,57777,98916
2025-05-27 12:54:36.129,109930,11540,11370,57773,98920
2025-05-27 12:54:36.130,109910,11542,11372,57769,98932
2025-05-27 12:54:36.138,109900,11536,11377,57768,98942
2025-05-27 12:54:36.145,109874,11522,11368,57747,98955
2025-05-27 12:54:36.157,109845,11517,11363,57718,98914
2025-05-27 12:54:36.170,109811,11506,11356,57677,98874
2025-05-27 12:54:36.177,109800,11499,11346,57640,98835
2025-05-27 12:54:36.194,109762,11478,11325,57595,98773
2025-05-27 12:54:36.197,109736,11459,11319,57545,98704
2025-05-27 12:54:36.210,109715,11452,11306,57526,98624
2025-05-27 12:54:36.217,109704,11434,11301,57498,98594
2025-05-27 12:54:36.229,109687,11422,11292,57484,98549
2025-05-27 12:54:36.238,109682,11429,11291,57468,98527
2025-05-27 12:54:36.258,109667,11423,11289,57461,98510
2025-05-27 12:54:36.259,109666,11419,11298,57454,98503
2025-05-27 12:54:36.270,109645,11418,11281,57454,98507
2025-05-27 12:54:36.278,109653,11420,11287,57451,98485
2025-05-27 12:54:36.289,109619,11406,11291,57438,98488
2025-05-27 12:54:36.298,109617,11413,11279,57417,98467
2025-05-27 12:54:36.321,109590,11384,11287,57404,98451
2025-05-27 12:54:36.322,109582,11388,11274,57416,98456
2025-05-27 12:54:36.329,109575,11381,11268,57409,98427
2025-05-27 12:54:36.337,109540,11373,11269,57399,98425
2025-05-27 12:54:36.349,109539,11368,11267,57378,98409
2025-05-27 12:54:36.358,109523,11368,11265,57372,98399
2025-05-27 12:54:36.370,109510,11365,11260,57368,98406
2025-05-27 12:54:36.385,109495,11362,11268,57365,98381
2025-05-27 12:54:36.390,109495,11369,11253,57362,98386
2025-05-27 12:54:36.398,109487,11355,11266,57371,98395
2025-05-27 12:54:36.410,109470,11357,11246,57367,98384
2025-05-27 12:54:36.418,109462,11355,11253,57356,98396
2025-05-27 12:54:36.429,109449,11349,11257,57349,98380
2025-05-27 12:54:36.448,109426,11344,11260,57346,98369
2025-05-27 12:54:36.449,109412,11337,11248,57335,98360
2025-05-27 12:54:36.462,109409,11339,11253,57329,98370
2025-05-27 12:54:36.465,109409,11339,11253,57329,98370
2025-05-27 12:54:36.470,109363,11325,11234,57292,98327
2025-05-27 12:54:36.482,109350,11327,11228,57286,98301
2025-05-27 12:54:36.489,109331,11313,11237,57273,98289
2025-05-27 12:54:36.511,109297,11309,11224,57273,98271
2025-05-27 12:54:36.512,109297,11307,11235,57250,98252
2025-05-27 12:54:36.521,109288,11300,11221,57234,98231
2025-05-27 12:54:36.529,109260,11294,11225,57230,98215
2025-05-27 12:54:36.542,109258,11280,11216,57216,98193
2025-05-27 12:54:36.549,109236,11284,11212,57205,98169
2025-05-27 12:54:36.575,109220,11279,11216,57180,98151
2025-05-27 12:54:36.576,109213,11272,11203,57187,98126
2025-05-27 12:54:36.581,109225,11273,11207,57187,98128
2025-05-27 12:54:36.590,109229,11269,11213,57190,98132
2025-05-27 12:54:36.602,109231,11274,11212,57186,98137
2025-05-27 12:54:36.610,109222,11266,11221,57200,98148
2025-05-27 12:54:36.621,109218,11272,11207,57192,98144
2025-05-27 12:54:36.638,109212,11268,11215,57179,98150
2025-05-27 12:54:36.642,109205,11265,11207,57191,98148
2025-05-27 12:54:36.649,109202,11264,11217,57173,98134
2025-05-27 12:54:36.661,109193,11262,11217,57173,98125
2025-05-27 12:54:36.670,109205,11259,11210,57176,98133
2025-05-27 12:54:36.681,109195,11274,11221,57155,98114
2025-05-27 12:54:36.702,109175,11254,11217,57155,98112
2025-05-27 12:54:36.703,109166,11248,11211,57123,98074
2025-05-27 12:54:36.713,109161,11249,11205,57111,98056
2025-05-27 12:54:36.721,109131,11238,11182,57084,98022
2025-05-27 12:54:36.734,109134,11224,11199,57068,97996
2025-05-27 12:54:36.741,109102,11219,11176,57069,97960
2025-05-27 12:54:36.764,109099,11206,11182,57042,97942
2025-05-27 12:54:36.766,109085,11210,11169,57024,97916
2025-05-27 12:54:36.773,109066,11204,11160,57021,97890
2025-05-27 12:54:36.781,109050,11193,11163,57021,97868
2025-05-27 12:54:36.794,109052,11189,11149,57016,97873
2025-05-27 12:54:36.802,109045,11181,11156,56994,97853
2025-05-27 12:54:36.813,109036,11191,11148,57005,97832
2025-05-27 12:54:36.829,109043,11185,11145,57012,97824
2025-05-27 12:54:36.833,109037,11174,11149,57021,97837
2025-05-27 12:54:36.842,109042,11192,11149,57020,97820
2025-05-27 12:54:36.853,109058,11184,11145,57038,97855
2025-05-27 12:54:36.861,109049,11181,11134,57026,97863
2025-05-27 12:54:36.874,109056,11171,11146,57035,97862
2025-05-27 12:54:36.891,109039,11175,11138,57023,97859
2025-05-27 12:54:36.893,109018,11171,11137,57010,97841
2025-05-27 12:54:36.901,109021,11162,11128,57009,97835
2025-05-27 12:54:36.913,109006,11157,11122,56985,97798
2025-05-27 12:54:36.922,109001,11143,11119,56967,97794
2025-05-27 12:54:36.933,108970,11139,11114,56942,97740
2025-05-27 12:54:36.956,108956,11131,11108,56917,97695
2025-05-27 12:54:36.957,108950,11130,11100,56898,97664
2025-05-27 12:54:36.965,108931,11109,11091,56877,97630
2025-05-27 12:54:36.974,108911,11107,11085,56857,97598
2025-05-27 12:54:36.985,108893,11114,11080,56856,97561
2025-05-27 12:54:36.993,108892,11103,11086,56837,97532
2025-05-27 12:54:37.020,108880,11092,11075,56826,97515
2025-05-27 12:54:37.021,108871,11100,11072,56824,97485
2025-05-27 12:54:37.024,108871,11100,11072,56824,97485
2025-05-27 12:54:37.033,108858,11095,11075,56823,97470
2025-05-27 12:54:37.046,108861,11087,11070,56809,97437
2025-05-27 12:54:37.053,108841,11084,11061,56784,97425
2025-05-27 12:54:37.066,108839,11083,11064,56787,97410
2025-05-27 12:54:37.069,108839,11083,11064,56787,97410
2025-05-27 12:54:37.084,108814,11080,11052,56761,97332
2025-05-27 12:54:37.086,108810,11072,11054,56740,97326
2025-05-27 12:54:37.093,108798,11068,11049,56724,97270
2025-05-27 12:54:37.105,108806,11060,11037,56716,97274
2025-05-27 12:54:37.113,108800,11057,11047,56712,97248
2025-05-27 12:54:37.125,108795,11069,11047,56713,97229
2025-05-27 12:54:37.132,108797,11069,11042,56712,97213
2025-05-27 12:54:37.147,108787,11060,11041,56718,97197
2025-05-27 12:54:37.153,108804,11065,11052,56702,97196
2025-05-27 12:54:37.165,108806,11063,11049,56708,97187
2025-05-27 12:54:37.173,108832,11063,11047,56720,97176
2025-05-27 12:54:37.185,108833,11079,11052,56725,97189
2025-05-27 12:54:37.193,108851,11077,11063,56729,97198
2025-05-27 12:54:37.211,108858,11088,11061,56746,97210
2025-05-27 12:54:37.213,108871,11099,11067,56757,97216
2025-05-27 12:54:37.225,108889,11096,11070,56762,97217
2025-05-27 12:54:37.237,108906,11103,11069,56761,97219
2025-05-27 12:54:37.245,108925,11110,11078,56772,97210
2025-05-27 12:54:37.256,108932,11113,11085,56775,97224
2025-05-27 12:54:37.274,108921,11109,11087,56783,97209
2025-05-27 12:54:37.277,108923,11127,11093,56771,97207
2025-05-27 12:54:37.286,108926,11126,11089,56782,97215
2025-05-27 12:54:37.297,108932,11130,11093,56781,97226
2025-05-27 12:54:37.306,108937,11137,11093,56791,97224
2025-05-27 12:54:37.318,108936,11147,11111,56795,97245
2025-05-27 12:54:37.338,108923,11146,11110,56793,97260
2025-05-27 12:54:37.340,108933,11147,11113,56797,97252
2025-05-27 12:54:37.346,108948,11153,11114,56820,97240
2025-05-27 12:54:37.357,108934,11159,11110,56799,97254
2025-05-27 12:54:37.365,108921,11172,11119,56817,97245
2025-05-27 12:54:37.377,108959,11174,11129,56828,97272
2025-05-27 12:54:37.385,108958,11191,11133,56840,97282
2025-05-27 12:54:37.402,108973,11192,11135,56843,97293
2025-05-27 12:54:37.404,108958,11197,11143,56865,97311
2025-05-27 12:54:37.417,109003,11208,11152,56861,97320
2025-05-27 12:54:37.425,108977,11214,11158,56887,97336
2025-05-27 12:54:37.437,109017,11225,11162,56887,97355
2025-05-27 12:54:37.445,109011,11224,11169,56902,97379
2025-05-27 12:54:37.466,109032,11233,11169,56899,97380
2025-05-27 12:54:37.469,109027,11236,11163,56900,97376
2025-05-27 12:54:37.477,109033,11240,11178,56918,97396
2025-05-27 12:54:37.485,109062,11247,11176,56926,97399
2025-05-27 12:54:37.497,109054,11245,11186,56948,97397
2025-05-27 12:54:37.508,109059,11249,11189,56950,97426
2025-05-27 12:54:37.529,109076,11267,11184,56972,97432
2025-05-27 12:54:37.530,109073,11263,11199,56981,97457
2025-05-27 12:54:37.537,109088,11271,11196,56998,97473
2025-05-27 12:54:37.549,109098,11267,11201,57001,97494
2025-05-27 12:54:37.556,109098,11268,11193,57019,97512
2025-05-27 12:54:37.569,109114,11277,11193,57012,97506
2025-05-27 12:54:37.576,109127,11282,11194,57030,97533
2025-05-27 12:54:37.592,109128,11283,11202,57039,97537
2025-05-27 12:54:37.598,109122,11283,11207,57042,97545
2025-05-27 12:54:37.609,109151,11279,11197,57057,97571
2025-05-27 12:54:37.618,109133,11287,11202,57066,97578
2025-05-27 12:54:37.629,109140,11292,11205,57069,97583
2025-05-27 12:54:37.637,109147,11291,11217,57068,97605
2025-05-27 12:54:37.655,109168,11298,11219,57073,97618
2025-05-27 12:54:37.657,109158,11303,11211,57081,97615
2025-05-27 12:54:37.669,109151,11305,11225,57096,97608
2025-05-27 12:54:37.672,109151,11305,11225,57096,97608
2025-05-27 12:54:37.677,109173,11312,11220,57085,97623
2025-05-27 12:54:37.688,109174,11314,11217,57091,97611
2025-05-27 12:54:37.697,109163,11312,11232,57087,97624
2025-05-27 12:54:37.718,109180,11315,11228,57097,97633
2025-05-27 12:54:37.719,109175,11323,11230,57101,97639
2025-05-27 12:54:37.729,109173,11321,11232,57100,97619
2025-05-27 12:54:37.737,109167,11320,11235,57097,97636
2025-05-27 12:54:37.749,109162,11323,11233,57092,97640
2025-05-27 12:54:37.757,109151,11322,11231,57095,97624
2025-05-27 12:54:37.782,109156,11328,11222,57088,97612
2025-05-27 12:54:37.783,109135,11310,11223,57082,97617
2025-05-27 12:54:37.789,109124,11312,11229,57070,97601
2025-05-27 12:54:37.801,109151,11306,11219,57071,97584
2025-05-27 12:54:37.808,109137,11311,11222,57063,97555
2025-05-27 12:54:37.821,109132,11308,11223,57050,97564
2025-05-27 12:54:37.829,109117,11317,11227,57045,97543
2025-05-27 12:54:37.845,109107,11315,11224,57042,97532
2025-05-27 12:54:37.849,109101,11299,11226,57051,97515
2025-05-27 12:54:37.861,109097,11315,11231,57054,97514
2025-05-27 12:54:37.869,109102,11316,11228,57046,97507
2025-05-27 12:54:37.881,109091,11313,11231,57045,97485
2025-05-27 12:54:37.889,109102,11328,11229,57064,97490
2025-05-27 12:54:37.910,109119,11320,11231,57068,97512
2025-05-27 12:54:37.911,109128,11336,11246,57079,97525
2025-05-27 12:54:37.921,109134,11326,11249,57082,97522
2025-05-27 12:54:37.928,109146,11350,11250,57099,97534
2025-05-27 12:54:37.941,109131,11347,11259,57106,97550
2025-05-27 12:54:37.949,109158,11356,11259,57114,97561
2025-05-27 12:54:37.973,109165,11354,11259,57117,97571
2025-05-27 12:54:37.974,109169,11382,11271,57152,97618
2025-05-27 12:54:37.981,109178,11365,11276,57152,97617
2025-05-27 12:54:37.989,109183,11381,11280,57168,97622
2025-05-27 12:54:38.001,109187,11379,11270,57141,97629
2025-05-27 12:54:38.010,109178,11385,11296,57155,97639
2025-05-27 12:54:38.021,109202,11400,11304,57166,97647
2025-05-27 12:54:38.039,109190,11397,11294,57169,97641
2025-05-27 12:54:38.041,109202,11399,11299,57156,97648
2025-05-27 12:54:38.053,109209,11398,11304,57174,97639
2025-05-27 12:54:38.060,109229,11410,11307,57190,97640
2025-05-27 12:54:38.073,109225,11413,11315,57189,97662
2025-05-27 12:54:38.081,109245,11430,11332,57193,97679
2025-05-27 12:54:38.105,109260,11426,11318,57219,97696
2025-05-27 12:54:38.106,109269,11435,11332,57225,97713
2025-05-27 12:54:38.113,109278,11446,11340,57243,97722
2025-05-27 12:54:38.120,109300,11451,11345,57268,97747
2025-05-27 12:54:38.132,109313,11459,11354,57269,97768
2025-05-27 12:54:38.140,109312,11468,11362,57273,97801
2025-05-27 12:54:38.153,109334,11471,11357,57298,97791
2025-05-27 12:54:38.169,109352,11476,11375,57301,97810
2025-05-27 12:54:38.172,109356,11466,11378,57319,97840
2025-05-27 12:54:38.180,109364,11498,11387,57335,97846
2025-05-27 12:54:38.193,109371,11492,11383,57345,97881
2025-05-27 12:54:38.200,109387,11490,11382,57352,97898
2025-05-27 12:54:38.213,109403,11495,11380,57368,97924
2025-05-27 12:54:38.232,109393,11508,11390,57376,97926
2025-05-27 12:54:38.233,109394,11505,11383,57385,97933
2025-05-27 12:54:38.240,109403,11509,11391,57394,97952
2025-05-27 12:54:38.252,109409,11507,11396,57409,97978
2025-05-27 12:54:38.261,109410,11508,11394,57426,97990
2025-05-27 12:54:38.273,109418,11507,11401,57431,98012
2025-05-27 12:54:38.280,109438,11503,11398,57440,98014
2025-05-27 12:54:38.296,109439,11503,11403,57432,98033
2025-05-27 12:54:38.304,109445,11498,11394,57439,98034
2025-05-27 12:54:38.313,109436,11506,11402,57447,98045
2025-05-27 12:54:38.325,109422,11511,11401,57451,98050
2025-05-27 12:54:38.332,109442,11508,11399,57455,98055
2025-05-27 12:54:38.344,109435,11519,11401,57453,98073
2025-05-27 12:54:38.361,109439,11512,11411,57452,98057
2025-05-27 12:54:38.365,109433,11513,11408,57438,98061
2025-05-27 12:54:38.372,109423,11501,11407,57449,98038
2025-05-27 12:54:38.384,109409,11504,11391,57443,98038
2025-05-27 12:54:38.393,109399,11496,11401,57432,98029
2025-05-27 12:54:38.404,109411,11501,11404,57441,98020
2025-05-27 12:54:38.423,109394,11502,11391,57444,98040
2025-05-27 12:54:38.425,109422,11499,11401,57439,98028
2025-05-27 12:54:38.433,109401,11506,11394,57426,98036
2025-05-27 12:54:38.445,109406,11503,11394,57459,98044
2025-05-27 12:54:38.452,109403,11505,11403,57445,98033
2025-05-27 12:54:38.464,109390,11504,11404,57449,98029
2025-05-27 12:54:38.487,109402,11498,11403,57446,98033
2025-05-27 12:54:38.489,109394,11493,11398,57447,98017
2025-05-27 12:54:38.493,109400,11497,11401,57437,98021
2025-05-27 12:54:38.504,109401,11490,11401,57448,98012
2025-05-27 12:54:38.513,109380,11492,11411,57450,98014
2025-05-27 12:54:38.525,109406,11494,11400,57446,97998
2025-05-27 12:54:38.533,109395,11486,11400,57447,98003
2025-05-27 12:54:38.550,109394,11500,11407,57449,98007
2025-05-27 12:54:38.557,109396,11491,11404,57463,98006
2025-05-27 12:54:38.565,109406,11499,11411,57471,98027
2025-05-27 12:54:38.577,109393,11501,11400,57480,98028
2025-05-27 12:54:38.585,109400,11498,11398,57469,98024
2025-05-27 12:54:38.597,109406,11503,11418,57481,98031
2025-05-27 12:54:38.614,109408,11517,11408,57497,98040
2025-05-27 12:54:38.616,109421,11510,11421,57496,98054
2025-05-27 12:54:38.625,109426,11507,11437,57506,98054
2025-05-27 12:54:38.637,109416,11512,11428,57496,98065
2025-05-27 12:54:38.644,109414,11511,11425,57508,98048
2025-05-27 12:54:38.657,109410,11514,11423,57510,98064
2025-05-27 12:54:38.678,109421,11521,11426,57499,98064
2025-05-27 12:54:38.679,109426,11517,11420,57509,98051
2025-05-27 12:54:38.681,109426,11517,11420,57509,98051
2025-05-27 12:54:38.685,109423,11531,11432,57508,98062
2025-05-27 12:54:38.696,109426,11526,11451,57499,98051
2025-05-27 12:54:38.704,109424,11539,11444,57512,98054
2025-05-27 12:54:38.717,109395,11535,11435,57501,98050
2025-05-27 12:54:38.724,109410,11536,11435,57504,98055
2025-05-27 12:54:38.742,109416,11536,11444,57512,98063
2025-05-27 12:54:38.745,109415,11534,11435,57506,98055
2025-05-27 12:54:38.757,109403,11528,11439,57501,98046
2025-05-27 12:54:38.764,109392,11529,11436,57501,98032
2025-05-27 12:54:38.776,109380,11532,11456,57494,98032
2025-05-27 12:54:38.785,109376,11533,11439,57485,98025
2025-05-27 12:54:38.805,109367,11531,11442,57490,98017
2025-05-27 12:54:38.806,109374,11529,11450,57497,98008
2025-05-27 12:54:38.816,109360,11523,11433,57478,97994
2025-05-27 12:54:38.829,109343,11529,11446,57497,97972
2025-05-27 12:54:38.837,109349,11528,11447,57486,97980
2025-05-27 12:54:38.849,109343,11531,11439,57499,97976
2025-05-27 12:54:38.868,109349,11532,11441,57504,97990
2025-05-27 12:54:38.869,109366,11533,11448,57509,97983
2025-05-27 12:54:38.876,109384,11540,11447,57515,97993
2025-05-27 12:54:38.889,109377,11531,11440,57535,98021
2025-05-27 12:54:38.897,109389,11540,11445,57536,98009
2025-05-27 12:54:38.909,109389,11546,11439,57554,98030
2025-05-27 12:54:38.917,109384,11536,11441,57556,98046
2025-05-27 12:54:38.936,109392,11528,11438,57551,98047
2025-05-27 12:54:38.937,109401,11527,11436,57561,98037
2025-05-27 12:54:38.948,109407,11531,11432,57558,98047
2025-05-27 12:54:38.957,109413,11528,11436,57567,98064
2025-05-27 12:54:38.969,109395,11542,11433,57569,98063
2025-05-27 12:54:38.977,109414,11538,11431,57575,98057
2025-05-27 12:54:39.004,109413,11536,11441,57574,98061
2025-05-27 12:54:39.005,109408,11539,11431,57582,98070
2025-05-27 12:54:39.008,109422,11529,11424,57599,98070
2025-05-27 12:54:39.017,109425,11540,11439,57608,98094
2025-05-27 12:54:39.029,109424,11539,11441,57613,98104
2025-05-27 12:54:39.036,109437,11540,11442,57627,98120
2025-05-27 12:54:39.049,109445,11542,11442,57615,98131
2025-05-27 12:54:39.069,109429,11543,11440,57617,98132
2025-05-27 12:54:39.070,109430,11536,11444,57618,98118
2025-05-27 12:54:39.080,109438,11541,11439,57616,98133
2025-05-27 12:54:39.088,109438,11548,11443,57605,98121
2025-05-27 12:54:39.101,109429,11545,11436,57610,98124
2025-05-27 12:54:39.108,109437,11554,11440,57618,98138
2025-05-27 12:54:39.132,109416,11552,11441,57616,98133
2025-05-27 12:54:39.133,109434,11536,11439,57612,98125
2025-05-27 12:54:39.141,109417,11544,11435,57600,98100
2025-05-27 12:54:39.149,109419,11543,11437,57608,98117
2025-05-27 12:54:39.160,109390,11537,11436,57608,98107
2025-05-27 12:54:39.168,109396,11538,11428,57610,98106
2025-05-27 12:54:39.180,109396,11530,11427,57614,98094
2025-05-27 12:54:39.197,109394,11533,11421,57598,98081
2025-05-27 12:54:39.201,109401,11533,11439,57581,98083
2025-05-27 12:54:39.209,109402,11524,11428,57594,98069
2025-05-27 12:54:39.221,109392,11520,11431,57589,98071
2025-05-27 12:54:39.228,109400,11532,11425,57588,98068
2025-05-27 12:54:39.240,109393,11526,11439,57593,98066
2025-05-27 12:54:39.260,109381,11540,11436,57588,98085
2025-05-27 12:54:39.262,109389,11535,11425,57597,98073
2025-05-27 12:54:39.268,109404,11537,11429,57598,98066
2025-05-27 12:54:39.280,109404,11539,11436,57599,98087
2025-05-27 12:54:39.289,109405,11540,11439,57607,98086
2025-05-27 12:54:39.301,109407,11540,11433,57613,98102
2025-05-27 12:54:39.308,109412,11553,11450,57607,98095
2025-05-27 12:54:39.324,109409,11550,11443,57610,98088
2025-05-27 12:54:39.329,109421,11546,11439,57616,98087
2025-05-27 12:54:39.340,109409,11550,11444,57607,98098
2025-05-27 12:54:39.352,109421,11554,11453,57622,98102
2025-05-27 12:54:39.360,109407,11553,11458,57619,98109
2025-05-27 12:54:39.372,109411,11552,11453,57627,98118
2025-05-27 12:54:39.386,109424,11560,11463,57620,98121
2025-05-27 12:54:39.392,109416,11556,11454,57636,98118
2025-05-27 12:54:39.400,109418,11566,11450,57630,98118
2025-05-27 12:54:39.412,109426,11561,11462,57627,98122
2025-05-27 12:54:39.420,109423,11575,11464,57645,98104
2025-05-27 12:54:39.433,109439,11568,11467,57645,98130
2025-05-27 12:54:39.450,109422,11572,11465,57640,98145
2025-05-27 12:54:39.452,109431,11585,11467,57644,98148
2025-05-27 12:54:39.461,109436,11584,11469,57657,98130
2025-05-27 12:54:39.472,109437,11574,11478,57660,98151
2025-05-27 12:54:39.480,109429,11580,11475,57662,98163
2025-05-27 12:54:39.493,109459,11580,11494,57656,98166
2025-05-27 12:54:39.513,109433,11582,11487,57658,98170
2025-05-27 12:54:39.515,109443,11584,11478,57657,98147
2025-05-27 12:54:39.520,109429,11584,11470,57655,98163
2025-05-27 12:54:39.532,109442,11587,11493,57653,98169
2025-05-27 12:54:39.540,109431,11585,11491,57646,98146
2025-05-27 12:54:39.552,109431,11585,11482,57649,98137
2025-05-27 12:54:39.560,109444,11599,11497,57639,98141
2025-05-27 12:54:39.576,109441,11595,11490,57647,98136
2025-05-27 12:54:39.580,109424,11590,11479,57638,98146
2025-05-27 12:54:39.592,109441,11584,11479,57652,98136
2025-05-27 12:54:39.601,109445,11598,11481,57647,98129
2025-05-27 12:54:39.612,109449,11580,11478,57666,98144
2025-05-27 12:54:39.624,109437,11580,11479,57658,98161
2025-05-27 12:54:39.640,109444,11577,11473,57675,98148
2025-05-27 12:54:39.645,109444,11572,11462,57663,98176
2025-05-27 12:54:39.652,109454,11578,11458,57671,98164
2025-05-27 12:54:39.664,109439,11571,11462,57686,98156
2025-05-27 12:54:39.672,109450,11564,11466,57680,98161
2025-05-27 12:54:39.684,109442,11565,11457,57685,98169
2025-05-27 12:54:39.703,109446,11568,11454,57688,98154
2025-05-27 12:54:39.704,109448,11565,11457,57682,98165
2025-05-27 12:54:39.713,109445,11563,11455,57678,98179
2025-05-27 12:54:39.724,109448,11559,11456,57688,98190
2025-05-27 12:54:39.732,109458,11550,11459,57708,98185
2025-05-27 12:54:39.745,109464,11555,11460,57706,98195
2025-05-27 12:54:39.752,109460,11571,11460,57697,98209
2025-05-27 12:54:39.767,109469,11572,11446,57701,98234
2025-05-27 12:54:39.772,109472,11561,11459,57722,98227
2025-05-27 12:54:39.783,109458,11566,11454,57720,98229
2025-05-27 12:54:39.792,109462,11570,11449,57710,98226
2025-05-27 12:54:39.804,109451,11561,11459,57717,98234
2025-05-27 12:54:39.812,109450,11563,11445,57710,98221
2025-05-27 12:54:39.831,109442,11548,11449,57703,98224
2025-05-27 12:54:39.832,109444,11549,11448,57685,98203
2025-05-27 12:54:39.844,109412,11546,11447,57683,98202
2025-05-27 12:54:39.852,109443,11550,11441,57679,98184
2025-05-27 12:54:39.864,109434,11552,11442,57688,98171
2025-05-27 12:54:39.876,109424,11551,11440,57677,98186
2025-05-27 12:54:39.894,109415,11544,11430,57675,98165
2025-05-27 12:54:39.895,109415,11544,11430,57675,98165
2025-05-27 12:54:39.896,109414,11542,11431,57648,98145
2025-05-27 12:54:39.904,109421,11540,11431,57668,98161
2025-05-27 12:54:39.916,109418,11532,11442,57667,98148
2025-05-27 12:54:39.924,109413,11539,11424,57665,98145
2025-05-27 12:54:39.936,109425,11536,11432,57664,98148
2025-05-27 12:54:39.957,109422,11538,11432,57657,98143
2025-05-27 12:54:39.959,109422,11538,11434,57671,98136
2025-05-27 12:54:39.963,109418,11535,11434,57670,98130
2025-05-27 12:54:39.976,109413,11539,11432,57671,98159
2025-05-27 12:54:39.985,109423,11535,11438,57698,98164
2025-05-27 12:54:39.997,109436,11547,11445,57686,98170
2025-05-27 12:54:40.004,109436,11548,11441,57693,98165
2025-05-27 12:54:40.021,109436,11554,11443,57695,98195
2025-05-27 12:54:40.024,109436,11554,11443,57712,98182
