Timestamp,PPG1,PPG2,PPG3,PPG4,PPG5
2025-05-22 12:21:49.649,93236,19949,19858,76867,100122
2025-05-22 12:21:49.688,93247,19947,19843,76856,100125
2025-05-22 12:21:49.690,93251,19955,19845,76870,100131
2025-05-22 12:21:49.691,93277,19965,19850,76903,100161
2025-05-22 12:21:49.692,93272,19970,19858,76924,100194
2025-05-22 12:21:49.694,93274,19962,19861,76926,100200
2025-05-22 12:21:49.695,93277,19969,19857,76942,100200
2025-05-22 12:21:49.696,93292,19966,19856,76919,100212
2025-05-22 12:21:49.698,93304,19979,19863,76937,100201
2025-05-22 12:21:49.699,93303,19982,19870,76915,100189
2025-05-22 12:21:49.700,93319,19986,19878,76900,100174
2025-05-22 12:21:49.702,93333,19985,19892,76893,100157
2025-05-22 12:21:49.703,93337,19990,19901,76861,100136
2025-05-22 12:21:49.705,93331,19971,19905,76825,100095
2025-05-22 12:21:49.707,93323,19954,19895,76779,100028
2025-05-22 12:21:49.708,93308,19948,19887,76733,99980
2025-05-22 12:21:49.709,93271,19934,19877,76701,99957
2025-05-22 12:21:49.710,93264,19917,19861,76685,99927
2025-05-22 12:21:49.711,93233,19910,19840,76672,99905
2025-05-22 12:21:49.712,93198,19902,19815,76681,99904
2025-05-22 12:21:49.713,93185,19908,19801,76691,99931
2025-05-22 12:21:49.714,93176,19911,19801,76703,99960
2025-05-22 12:21:49.723,93163,19914,19804,76727,99970
2025-05-22 12:21:49.732,93171,19918,19812,76750,99994
2025-05-22 12:21:50.234,93182,19916,19822,76762,100007
2025-05-22 12:21:50.236,93168,19925,19836,76758,100007
2025-05-22 12:21:50.237,93190,19932,19847,76767,100023
2025-05-22 12:21:50.240,93185,19940,19867,76804,100030
2025-05-22 12:21:50.241,93190,19934,19887,76813,100057
2025-05-22 12:21:50.243,93168,19923,19880,76810,100050
2025-05-22 12:21:50.245,93165,19919,19861,76803,100048
2025-05-22 12:21:50.246,93157,19911,19853,76762,100008
2025-05-22 12:21:50.248,93172,19885,19842,76731,99967
2025-05-22 12:21:50.249,93176,19893,19836,76710,99937
2025-05-22 12:21:50.251,93191,19884,19835,76684,99907
2025-05-22 12:21:50.253,93202,19888,19831,76657,99871
2025-05-22 12:21:50.255,93217,19880,19831,76634,99858
2025-05-22 12:21:50.257,93243,19890,19840,76600,99802
2025-05-22 12:21:50.260,93266,19893,19852,76601,99808
2025-05-22 12:21:50.262,93282,19903,19870,76591,99786
2025-05-22 12:21:50.265,93291,19900,19869,76584,99786
2025-05-22 12:21:50.267,93316,19909,19879,76556,99759
2025-05-22 12:21:50.269,93312,19917,19881,76553,99769
2025-05-22 12:21:50.271,93312,19933,19899,76570,99785
2025-05-22 12:21:50.272,93323,19950,19919,76594,99818
2025-05-22 12:21:50.274,93321,19956,19935,76624,99839
2025-05-22 12:21:50.275,93309,19963,19957,76625,99870
2025-05-22 12:21:50.276,93305,19975,19972,76649,99882
2025-05-22 12:21:50.277,93300,19981,19981,76660,99907
2025-05-22 12:21:50.278,93314,19999,19996,76709,99947
2025-05-22 12:21:50.278,93317,20004,20023,76743,99997
2025-05-22 12:21:50.294,93334,20024,20033,76764,100027
2025-05-22 12:21:50.295,93352,20024,20047,76768,100014
2025-05-22 12:21:50.296,93370,20032,20048,76784,100025
2025-05-22 12:21:50.297,93392,20044,20060,76793,100028
2025-05-22 12:21:50.297,93392,20045,20073,76806,100046
2025-05-22 12:21:50.298,93386,20048,20072,76805,100052
2025-05-22 12:21:50.299,93374,20035,20068,76807,100056
2025-05-22 12:21:50.299,93355,20040,20049,76797,100063
2025-05-22 12:21:50.300,93336,20032,20028,76783,100043
2025-05-22 12:21:50.300,93334,20029,20019,76790,100025
2025-05-22 12:21:50.301,93320,20028,20006,76786,100026
2025-05-22 12:21:50.302,93303,20026,19993,76778,100033
2025-05-22 12:21:50.302,93303,20026,19993,76778,100033
2025-05-22 12:21:50.303,93249,19993,19938,76727,99979
2025-05-22 12:21:50.304,93244,19992,19917,76704,99955
2025-05-22 12:21:50.305,93220,19985,19897,76722,99958
2025-05-22 12:21:50.306,93230,20000,19889,76738,99979
2025-05-22 12:21:50.307,93221,20019,19889,76769,100028
2025-05-22 12:21:50.308,93230,20031,19888,76812,100070
2025-05-22 12:21:50.309,93239,20039,19894,76833,100114
2025-05-22 12:21:50.310,93228,20048,19891,76863,100151
2025-05-22 12:21:50.311,93216,20059,19904,76881,100159
2025-05-22 12:21:50.312,93203,20068,19914,76893,100184
2025-05-22 12:21:50.313,93138,20050,19904,76909,100192
2025-05-22 12:21:50.315,93059,20042,19884,76895,100185
2025-05-22 12:21:50.317,92947,20021,19855,76900,100184
2025-05-22 12:21:50.318,92855,19987,19811,76890,100163
2025-05-22 12:21:50.319,92777,19967,19769,76896,100143
2025-05-22 12:21:50.320,92699,19945,19732,76906,100150
2025-05-22 12:21:50.321,92640,19918,19695,76909,100149
2025-05-22 12:21:50.322,92582,19903,19653,76923,100155
2025-05-22 12:21:50.323,92543,19876,19634,76936,100171
2025-05-22 12:21:50.328,92520,19855,19606,76928,100174
2025-05-22 12:21:50.336,92497,19839,19587,76940,100165
2025-05-22 12:21:50.361,92475,19813,19563,76950,100162
2025-05-22 12:21:50.363,92466,19811,19534,76953,100162
2025-05-22 12:21:50.368,92472,19799,19511,76961,100169
2025-05-22 12:21:50.376,92493,19791,19499,76975,100195
2025-05-22 12:21:50.387,92509,19783,19490,77006,100215
2025-05-22 12:21:50.395,92531,19778,19488,77006,100216
2025-05-22 12:21:50.408,92563,19777,19492,76995,100198
2025-05-22 12:21:50.431,92582,19784,19486,76994,100198
2025-05-22 12:21:50.432,92601,19780,19495,76983,100183
2025-05-22 12:21:50.435,92624,19788,19495,76980,100201
2025-05-22 12:21:50.448,92643,19789,19508,76992,100212
2025-05-22 12:21:50.455,92657,19796,19508,76993,100217
2025-05-22 12:21:50.469,92699,19800,19516,76995,100209
2025-05-22 12:21:50.476,92706,19811,19518,76989,100212
2025-05-22 12:21:50.498,92745,19828,19527,77013,100230
2025-05-22 12:21:50.500,92749,19815,19525,77031,100266
2025-05-22 12:21:50.508,92735,19805,19512,77013,100251
2025-05-22 12:21:50.515,92723,19806,19473,76992,100241
2025-05-22 12:21:50.528,92730,19808,19455,76980,100233
2025-05-22 12:21:50.536,92748,19808,19448,76977,100234
2025-05-22 12:21:50.566,92744,19804,19452,76972,100246
2025-05-22 12:21:50.568,92755,19822,19454,76973,100252
2025-05-22 12:21:50.569,92759,19821,19460,76961,100253
2025-05-22 12:21:50.576,92762,19827,19461,76954,100236
2025-05-22 12:21:50.588,92749,19839,19475,76979,100249
2025-05-22 12:21:50.595,92729,19846,19490,76988,100277
2025-05-22 12:21:50.608,92752,19849,19489,77006,100293
2025-05-22 12:21:50.634,92731,19859,19521,77024,100298
2025-05-22 12:21:50.635,92749,19855,19527,77018,100297
2025-05-22 12:21:50.639,92732,19838,19533,77008,100275
2025-05-22 12:21:50.648,92718,19829,19531,76974,100246
2025-05-22 12:21:50.659,92704,19823,19518,76963,100221
2025-05-22 12:21:50.668,92699,19821,19511,76964,100237
2025-05-22 12:21:50.679,92711,19822,19514,76990,100260
2025-05-22 12:21:50.700,92711,19838,19516,77010,100261
2025-05-22 12:21:50.702,92713,19836,19515,77022,100291
2025-05-22 12:21:50.708,92725,19843,19522,77044,100311
2025-05-22 12:21:50.720,92748,19842,19515,77041,100314
2025-05-22 12:21:50.727,92762,19846,19528,77049,100320
2025-05-22 12:21:50.739,92777,19849,19541,77035,100311
2025-05-22 12:21:50.748,92794,19854,19544,77004,100276
2025-05-22 12:21:50.768,92811,19853,19546,76997,100264
2025-05-22 12:21:50.769,92834,19864,19554,76995,100267
2025-05-22 12:21:50.780,92867,19878,19572,77022,100297
2025-05-22 12:21:50.788,92914,19895,19591,77032,100304
2025-05-22 12:21:50.800,92946,19907,19617,77032,100326
2025-05-22 12:21:50.808,92966,19910,19635,77022,100314
2025-05-22 12:21:50.839,92997,19912,19641,77009,100292
2025-05-22 12:21:50.840,93001,19927,19632,76997,100283
2025-05-22 12:21:50.842,93011,19943,19656,76998,100307
2025-05-22 12:21:50.847,93020,19948,19660,77025,100355
2025-05-22 12:21:50.860,93017,19968,19677,77063,100384
2025-05-22 12:21:50.868,93005,19972,19686,77089,100419
2025-05-22 12:21:50.879,93000,19977,19696,77107,100452
2025-05-22 12:21:50.908,92984,20003,19710,77157,100497
2025-05-22 12:21:50.909,92977,20006,19715,77194,100539
2025-05-22 12:21:50.911,92964,20029,19733,77228,100576
2025-05-22 12:21:50.920,92953,20033,19749,77255,100618
2025-05-22 12:21:50.932,92950,20048,19769,77294,100654
2025-05-22 12:21:50.939,92926,20050,19781,77309,100678
2025-05-22 12:21:50.953,92893,20057,19786,77321,100687
2025-05-22 12:21:50.984,92898,20066,19806,77323,100705
2025-05-22 12:21:50.985,92886,20068,19807,77333,100708
2025-05-22 12:21:50.988,92878,20076,19823,77325,100714
2025-05-22 12:21:50.992,92883,20087,19846,77332,100710
2025-05-22 12:21:51.000,92878,20101,19871,77335,100724
2025-05-22 12:21:51.012,92887,20108,19903,77332,100719
2025-05-22 12:21:51.020,92898,20132,19932,77363,100741
2025-05-22 12:21:51.032,92904,20147,19973,77367,100734
2025-05-22 12:21:51.130,92916,20164,20009,77387,100776
2025-05-22 12:21:51.134,92927,20179,20042,77422,100795
2025-05-22 12:21:51.136,92938,20191,20079,77451,100831
2025-05-22 12:21:51.139,92958,20199,20114,77465,100842
2025-05-22 12:21:51.143,92996,20212,20144,77465,100844
2025-05-22 12:21:51.146,93014,20217,20164,77485,100855
2025-05-22 12:21:51.149,93027,20224,20191,77466,100864
2025-05-22 12:21:51.152,93041,20224,20201,77465,100838
2025-05-22 12:21:51.154,93043,20206,20227,77456,100823
2025-05-22 12:21:51.157,93045,20206,20218,77429,100791
2025-05-22 12:21:51.160,93045,20206,20218,77429,100791
2025-05-22 12:21:51.163,93025,20172,20212,77346,100707
2025-05-22 12:21:51.166,93001,20164,20190,77314,100668
2025-05-22 12:21:51.169,92963,20150,20186,77311,100658
2025-05-22 12:21:51.172,92911,20136,20167,77262,100625
2025-05-22 12:21:51.211,92834,20112,20141,77248,100607
2025-05-22 12:21:51.214,92749,20097,20110,77262,100600
2025-05-22 12:21:51.218,92662,20085,20086,77298,100632
2025-05-22 12:21:51.221,92585,20069,20058,77357,100699
2025-05-22 12:21:51.224,92510,20048,20026,77408,100767
2025-05-22 12:21:51.231,92456,20028,19995,77435,100787
2025-05-22 12:21:51.244,92416,20001,19955,77464,100795
2025-05-22 12:21:51.251,92370,19970,19920,77468,100804
2025-05-22 12:21:51.281,92340,19939,19884,77455,100778
2025-05-22 12:21:51.283,92299,19897,19839,77461,100775
2025-05-22 12:21:51.286,92254,19877,19793,77457,100767
2025-05-22 12:21:51.292,92234,19841,19758,77446,100742
2025-05-22 12:21:51.304,92208,19810,19707,77431,100719
2025-05-22 12:21:51.313,92185,19778,19660,77395,100684
2025-05-22 12:21:51.325,92193,19754,19626,77384,100666
2025-05-22 12:21:51.351,92159,19738,19599,77366,100659
2025-05-22 12:21:51.352,92153,19716,19568,77348,100632
2025-05-22 12:21:51.354,92162,19685,19529,77327,100592
2025-05-22 12:21:51.364,92164,19659,19502,77287,100575
2025-05-22 12:21:51.371,92156,19641,19471,77253,100528
2025-05-22 12:21:51.383,92167,19626,19455,77220,100481
2025-05-22 12:21:51.392,92161,19627,19426,77194,100452
2025-05-22 12:21:51.418,92174,19612,19419,77195,100455
2025-05-22 12:21:51.420,92157,19612,19414,77211,100469
2025-05-22 12:21:51.423,92159,19616,19402,77233,100506
2025-05-22 12:21:51.436,92140,19616,19397,77269,100524
2025-05-22 12:21:51.443,92128,19624,19388,77298,100564
2025-05-22 12:21:51.455,92119,19634,19388,77339,100606
2025-05-22 12:21:51.463,92104,19637,19384,77367,100656
2025-05-22 12:21:51.486,92115,19649,19395,77429,100730
2025-05-22 12:21:51.487,92108,19657,19401,77472,100781
2025-05-22 12:21:51.496,92104,19658,19393,77511,100828
2025-05-22 12:21:51.503,92095,19667,19395,77525,100847
2025-05-22 12:21:51.516,92101,19664,19385,77538,100851
2025-05-22 12:21:51.523,92103,19670,19384,77532,100856
2025-05-22 12:21:51.556,92083,19664,19385,77534,100868
2025-05-22 12:21:51.559,92080,19653,19371,77527,100863
2025-05-22 12:21:51.561,92068,19634,19355,77520,100834
2025-05-22 12:21:51.564,92039,19617,19334,77487,100788
2025-05-22 12:21:51.576,92008,19589,19310,77460,100758
2025-05-22 12:21:51.584,91986,19582,19289,77431,100747
2025-05-22 12:21:51.596,91954,19557,19263,77424,100738
2025-05-22 12:21:51.604,91947,19545,19238,77419,100717
2025-05-22 12:21:51.639,91950,19501,19211,77354,100637
2025-05-22 12:21:51.641,91944,19433,19164,77212,100459
2025-05-22 12:21:51.643,91950,19359,19109,76999,100203
2025-05-22 12:21:51.645,91901,19268,19036,76773,99912
2025-05-22 12:21:51.657,91842,19178,18943,76516,99615
2025-05-22 12:21:51.665,91763,19129,18869,76332,99409
2025-05-22 12:21:51.676,91675,19127,18820,76304,99365
2025-05-22 12:21:51.685,91608,19137,18793,76396,99472
2025-05-22 12:21:51.711,91564,19165,18783,76565,99642
2025-05-22 12:21:51.713,91516,19192,18807,76755,99877
2025-05-22 12:21:51.716,91482,19208,18815,76926,100042
2025-05-22 12:21:51.724,91470,19228,18815,77041,100185
2025-05-22 12:21:51.736,91462,19250,18815,77136,100285
2025-05-22 12:21:51.748,91472,19265,18816,77216,100367
2025-05-22 12:21:51.756,91491,19281,18822,77271,100444
2025-05-22 12:21:51.781,91523,19298,18823,77327,100498
2025-05-22 12:21:51.783,91552,19310,18830,77367,100538
2025-05-22 12:21:51.788,91561,19323,18830,77414,100587
2025-05-22 12:21:51.795,91585,19323,18821,77438,100612
2025-05-22 12:21:51.808,91615,19327,18811,77427,100590
2025-05-22 12:21:51.816,91638,19340,18825,77434,100615
2025-05-22 12:21:51.827,91660,19355,18826,77430,100632
2025-05-22 12:21:51.847,91673,19377,18848,77465,100654
2025-05-22 12:21:51.849,91694,19384,18853,77516,100717
2025-05-22 12:21:51.856,91696,19380,18864,77523,100736
2025-05-22 12:21:51.867,91701,19375,18844,77510,100704
2025-05-22 12:21:51.876,91714,19369,18832,77505,100711
2025-05-22 12:21:51.887,91737,19390,18809,77520,100739
2025-05-22 12:21:51.896,91758,19407,18826,77574,100792
2025-05-22 12:21:51.919,91766,19430,18832,77643,100874
2025-05-22 12:21:51.921,91791,19467,18847,77720,100973
2025-05-22 12:21:51.928,91792,19531,18876,77852,101112
2025-05-22 12:21:51.936,91807,19574,18916,78030,101317
2025-05-22 12:21:51.948,91833,19660,18978,78197,101541
2025-05-22 12:21:51.956,91893,19721,19042,78400,101769
2025-05-22 12:21:51.968,91931,19798,19126,78602,102014
2025-05-22 12:21:51.988,91992,19874,19197,78802,102249
2025-05-22 12:21:51.990,92071,19939,19292,78979,102471
2025-05-22 12:21:52.000,92176,20028,19380,79161,102698
2025-05-22 12:21:52.008,92281,20124,19481,79356,102951
2025-05-22 12:21:52.019,92377,20200,19590,79556,103184
2025-05-22 12:21:52.028,92506,20272,19700,79711,103376
2025-05-22 12:21:52.057,92622,20351,19799,79825,103521
2025-05-22 12:21:52.060,92769,20430,19882,79926,103687
2025-05-22 12:21:52.062,92883,20478,19989,79993,103790
2025-05-22 12:21:52.067,92979,20527,20063,80023,103848
2025-05-22 12:21:52.079,93085,20558,20132,80029,103867
2025-05-22 12:21:52.088,93159,20609,20186,80014,103878
2025-05-22 12:21:52.099,93209,20643,20238,80014,103896
2025-05-22 12:21:52.126,93248,20691,20301,80031,103944
2025-05-22 12:21:52.128,93255,20721,20347,80092,104042
2025-05-22 12:21:52.129,93249,20761,20392,80167,104145
2025-05-22 12:21:52.140,93228,20795,20439,80253,104264
2025-05-22 12:21:52.147,93176,20812,20482,80357,104383
2025-05-22 12:21:52.159,93134,20837,20507,80433,104484
2025-05-22 12:21:52.168,93096,20839,20515,80504,104562
2025-05-22 12:21:52.194,93053,20823,20534,80573,104647
2025-05-22 12:21:52.196,93004,20819,20529,80601,104688
2025-05-22 12:21:52.200,92967,20790,20507,80620,104714
2025-05-22 12:21:52.208,92935,20781,20487,80633,104750
2025-05-22 12:21:52.220,92892,20767,20462,80669,104797
2025-05-22 12:21:52.228,92862,20736,20433,80705,104856
2025-05-22 12:21:52.239,92824,20705,20401,80757,104890
2025-05-22 12:21:52.262,92825,20667,20357,80748,104895
2025-05-22 12:21:52.263,92832,20636,20314,80709,104871
2025-05-22 12:21:52.267,92830,20618,20274,80715,104868
2025-05-22 12:21:52.280,92827,20565,20241,80705,104878
2025-05-22 12:21:52.292,92831,20521,20208,80610,104778
2025-05-22 12:21:52.299,92842,20463,20152,80482,104629
2025-05-22 12:21:52.330,92860,20428,20098,80338,104503
2025-05-22 12:21:52.332,92858,20406,20068,80250,104421
2025-05-22 12:21:52.333,92869,20368,20044,80179,104331
2025-05-22 12:21:52.340,92858,20345,20012,80112,104281
2025-05-22 12:21:52.343,92858,20345,20012,80112,104281
2025-05-22 12:21:52.352,92822,20292,19960,80024,104217
2025-05-22 12:21:52.359,92816,20272,19922,80009,104182
2025-05-22 12:21:52.372,92832,20267,19899,80053,104225
2025-05-22 12:21:52.379,92861,20278,19909,80137,104331
2025-05-22 12:21:52.399,92852,20267,19907,80223,104422
2025-05-22 12:21:52.400,92866,20248,19905,80242,104436
2025-05-22 12:21:52.411,92860,20237,19885,80227,104425
2025-05-22 12:21:52.420,92850,20207,19861,80196,104396
2025-05-22 12:21:52.432,92826,20182,19847,80175,104349
2025-05-22 12:21:52.440,92832,20161,19811,80155,104324
2025-05-22 12:21:52.468,92817,20142,19797,80160,104349
2025-05-22 12:21:52.469,92838,20140,19779,80203,104382
2025-05-22 12:21:52.472,92851,20152,19776,80293,104480
2025-05-22 12:21:52.480,92851,20127,19772,80375,104546
2025-05-22 12:21:52.491,92840,20093,19774,80392,104550
2025-05-22 12:21:52.499,92834,20053,19748,80372,104512
2025-05-22 12:21:52.511,92785,20008,19703,80276,104407
2025-05-22 12:21:52.535,92760,19967,19659,80202,104334
2025-05-22 12:21:52.537,92740,19936,19631,80141,104241
2025-05-22 12:21:52.544,92729,19902,19591,80108,104191
2025-05-22 12:21:52.551,92684,19857,19558,80059,104164
2025-05-22 12:21:52.560,92647,19823,19521,79998,104089
2025-05-22 12:21:52.572,92617,19789,19494,79960,104021
2025-05-22 12:21:52.584,92598,19769,19467,79939,103993
2025-05-22 12:21:52.602,92556,19755,19448,79954,104014
2025-05-22 12:21:52.604,92546,19758,19439,80017,104085
2025-05-22 12:21:52.612,92552,19748,19444,80087,104174
2025-05-22 12:21:52.624,92539,19745,19446,80123,104213
2025-05-22 12:21:52.632,92524,19736,19440,80177,104272
2025-05-22 12:21:52.643,92526,19715,19430,80207,104276
2025-05-22 12:21:52.668,92505,19693,19413,80208,104288
2025-05-22 12:21:52.670,92524,19691,19393,80184,104281
2025-05-22 12:21:52.671,92515,19682,19388,80177,104260
2025-05-22 12:21:52.683,92542,19684,19388,80167,104246
2025-05-22 12:21:52.691,92514,19675,19397,80183,104268
2025-05-22 12:21:52.704,92519,19673,19387,80227,104307
2025-05-22 12:21:52.711,92540,19661,19386,80246,104340
2025-05-22 12:21:52.735,92528,19643,19386,80266,104345
2025-05-22 12:21:52.737,92527,19626,19379,80273,104343
2025-05-22 12:21:52.744,92566,19618,19379,80263,104334
2025-05-22 12:21:52.751,92549,19630,19375,80247,104333
2025-05-22 12:21:52.764,92556,19661,19375,80301,104395
2025-05-22 12:21:52.772,92570,19672,19399,80415,104523
2025-05-22 12:21:52.783,92590,19671,19411,80488,104628
2025-05-22 12:21:52.802,92574,19653,19408,80498,104613
2025-05-22 12:21:52.804,92549,19636,19392,80438,104560
2025-05-22 12:21:52.812,92532,19615,19374,80392,104493
2025-05-22 12:21:52.823,92526,19593,19370,80328,104445
2025-05-22 12:21:52.832,92498,19567,19357,80247,104354
2025-05-22 12:21:52.843,92489,19556,19330,80172,104288
2025-05-22 12:21:52.851,92465,19543,19318,80138,104236
2025-05-22 12:21:52.870,92459,19529,19312,80091,104192
2025-05-22 12:21:52.875,92437,19518,19302,80100,104177
2025-05-22 12:21:52.883,92431,19500,19287,80080,104161
2025-05-22 12:21:52.896,92416,19491,19284,80042,104148
2025-05-22 12:21:52.904,92408,19493,19281,80037,104127
2025-05-22 12:21:52.916,92424,19497,19284,80046,104139
2025-05-22 12:21:52.937,92419,19488,19281,80039,104157
2025-05-22 12:21:52.938,92424,19470,19269,80027,104114
2025-05-22 12:21:52.943,92395,19458,19269,79965,104055
2025-05-22 12:21:52.956,92366,19443,19254,79902,103997
2025-05-22 12:21:52.963,92321,19426,19240,79872,103950
2025-05-22 12:21:52.975,92315,19411,19239,79827,103917
2025-05-22 12:21:52.983,92300,19422,19226,79822,103901
2025-05-22 12:21:53.005,92310,19419,19229,79832,103921
2025-05-22 12:21:53.006,92313,19413,19230,79827,103929
2025-05-22 12:21:53.016,92325,19417,19233,79843,103947
2025-05-22 12:21:53.023,92321,19418,19225,79838,103960
2025-05-22 12:21:53.035,92316,19410,19233,79829,103943
2025-05-22 12:21:53.044,92268,19388,19230,79783,103898
2025-05-22 12:21:53.075,92244,19371,19215,79740,103840
2025-05-22 12:21:53.076,92184,19334,19192,79664,103783
2025-05-22 12:21:53.077,92126,19304,19167,79647,103726
2025-05-22 12:21:53.083,92083,19268,19137,79590,103650
2025-05-22 12:21:53.095,92005,19214,19089,79556,103606
2025-05-22 12:21:53.104,91957,19179,19039,79534,103556
2025-05-22 12:21:53.116,91913,19131,18997,79494,103521
2025-05-22 12:21:53.123,91867,19092,18965,79460,103484
2025-05-22 12:21:53.142,91842,19037,18910,79432,103420
2025-05-22 12:21:53.148,91805,18985,18870,79382,103373
2025-05-22 12:21:53.155,91782,18947,18820,79358,103325
2025-05-22 12:21:53.167,91750,18906,18780,79311,103259
2025-05-22 12:21:53.176,91749,18879,18742,79302,103255
2025-05-22 12:21:53.187,91749,18854,18716,79281,103216
2025-05-22 12:21:53.210,91732,18822,18692,79251,103179
2025-05-22 12:21:53.212,91750,18782,18662,79211,103144
2025-05-22 12:21:53.216,91725,18757,18628,79162,103082
2025-05-22 12:21:53.228,91746,18737,18611,79131,103031
2025-05-22 12:21:53.235,91742,18716,18578,79092,103019
2025-05-22 12:21:53.248,91736,18683,18564,79075,102993
2025-05-22 12:21:53.255,91712,18658,18539,79038,102950
2025-05-22 12:21:53.276,91698,18645,18523,79014,102926
2025-05-22 12:21:53.278,91665,18634,18518,79036,102927
2025-05-22 12:21:53.287,91660,18631,18517,79047,102949
2025-05-22 12:21:53.296,91653,18636,18506,79054,102972
2025-05-22 12:21:53.308,91638,18634,18508,79106,103023
2025-05-22 12:21:53.315,91634,18649,18522,79144,103064
2025-05-22 12:21:53.345,91631,18658,18536,79214,103139
2025-05-22 12:21:53.347,91618,18681,18556,79282,103215
2025-05-22 12:21:53.349,91594,18674,18567,79330,103253
2025-05-22 12:21:53.351,91594,18674,18567,79330,103253
2025-05-22 12:21:53.355,91574,18727,18600,79438,103369
2025-05-22 12:21:53.368,91558,18780,18639,79556,103530
2025-05-22 12:21:53.375,91540,18808,18688,79739,103702
2025-05-22 12:21:53.387,91472,18807,18721,79845,103804
2025-05-22 12:21:53.413,91403,18812,18735,79899,103895
2025-05-22 12:21:53.415,91340,18781,18720,79900,103881
2025-05-22 12:21:53.419,91253,18760,18709,79852,103858
2025-05-22 12:21:53.428,91174,18730,18688,79813,103793
2025-05-22 12:21:53.439,91099,18696,18654,79758,103731
2025-05-22 12:21:53.447,91030,18659,18632,79704,103666
2025-05-22 12:21:53.460,90971,18627,18594,79656,103609
2025-05-22 12:21:53.480,90940,18629,18571,79633,103588
2025-05-22 12:21:53.482,90901,18610,18555,79598,103574
2025-05-22 12:21:53.487,90872,18593,18555,79607,103570
2025-05-22 12:21:53.499,90851,18614,18534,79624,103596
2025-05-22 12:21:53.508,90826,18587,18536,79649,103610
2025-05-22 12:21:53.520,90811,18589,18525,79644,103601
2025-05-22 12:21:53.527,90806,18571,18518,79628,103584
2025-05-22 12:21:53.550,90795,18582,18514,79620,103583
2025-05-22 12:21:53.551,90782,18559,18522,79618,103574
2025-05-22 12:21:53.560,90781,18563,18520,79616,103567
2025-05-22 12:21:53.567,90780,18548,18524,79615,103584
2025-05-22 12:21:53.580,90764,18543,18511,79609,103541
2025-05-22 12:21:53.588,90739,18536,18516,79575,103528
2025-05-22 12:21:53.617,90725,18529,18499,79566,103481
2025-05-22 12:21:53.619,90701,18526,18497,79550,103459
2025-05-22 12:21:53.621,90709,18529,18517,79561,103455
2025-05-22 12:21:53.629,90694,18523,18501,79552,103462
2025-05-22 12:21:53.639,90693,18524,18496,79543,103461
2025-05-22 12:21:53.648,90683,18520,18497,79538,103449
2025-05-22 12:21:53.660,90686,18518,18503,79532,103442
2025-05-22 12:21:53.686,90673,18513,18485,79520,103432
2025-05-22 12:21:53.688,90639,18515,18470,79523,103444
2025-05-22 12:21:53.691,90635,18516,18463,79521,103437
2025-05-22 12:21:53.700,90625,18509,18464,79532,103436
2025-05-22 12:21:53.712,90606,18511,18478,79534,103441
2025-05-22 12:21:53.719,90574,18501,18462,79516,103417
2025-05-22 12:21:53.732,90539,18492,18460,79502,103396
2025-05-22 12:21:53.751,90522,18500,18459,79479,103384
2025-05-22 12:21:53.753,90508,18479,18450,79501,103388
2025-05-22 12:21:53.760,90498,18486,18458,79476,103372
2025-05-22 12:21:53.772,90495,18475,18453,79489,103377
2025-05-22 12:21:53.780,90468,18481,18451,79470,103366
2025-05-22 12:21:53.792,90460,18475,18460,79471,103364
2025-05-22 12:21:53.799,90449,18475,18437,79468,103356
2025-05-22 12:21:53.820,90438,18473,18458,79461,103361
2025-05-22 12:21:53.822,90432,18473,18442,79460,103329
2025-05-22 12:21:53.832,90417,18472,18456,79441,103313
2025-05-22 12:21:53.840,90382,18458,18436,79421,103293
2025-05-22 12:21:53.852,90370,18458,18441,79413,103262
2025-05-22 12:21:53.860,90342,18452,18433,79400,103253
2025-05-22 12:21:53.887,90345,18450,18430,79391,103252
2025-05-22 12:21:53.889,90338,18450,18423,79390,103238
2025-05-22 12:21:53.892,90325,18456,18429,79379,103244
2025-05-22 12:21:53.899,90320,18465,18415,79394,103274
2025-05-22 12:21:53.912,90315,18466,18420,79404,103293
2025-05-22 12:21:53.920,90291,18459,18422,79405,103278
2025-05-22 12:21:53.931,90288,18444,18420,79373,103246
2025-05-22 12:21:53.953,90284,18449,18413,79346,103221
2025-05-22 12:21:53.955,90263,18441,18407,79328,103204
2025-05-22 12:21:53.964,90236,18436,18415,79284,103151
2025-05-22 12:21:53.971,90215,18419,18401,79240,103114
2025-05-22 12:21:53.984,90161,18408,18397,79210,103045
2025-05-22 12:21:53.991,90119,18380,18386,79170,103012
2025-05-22 12:21:54.023,90066,18350,18359,79141,102984
2025-05-22 12:21:54.025,90018,18327,18337,79124,102935
2025-05-22 12:21:54.026,89974,18285,18302,79091,102906
2025-05-22 12:21:54.031,89932,18247,18262,79070,102868
2025-05-22 12:21:54.043,89890,18212,18221,79041,102849
2025-05-22 12:21:54.051,89844,18180,18181,79021,102808
2025-05-22 12:21:54.064,89811,18134,18138,78998,102748
2025-05-22 12:21:54.071,89769,18091,18097,78964,102704
2025-05-22 12:21:54.090,89735,18050,18054,78947,102698
2025-05-22 12:21:54.092,89723,18013,18019,78921,102663
2025-05-22 12:21:54.104,89715,17988,17985,78888,102638
2025-05-22 12:21:54.111,89704,17961,17965,78887,102608
2025-05-22 12:21:54.123,89707,17936,17928,78863,102582
2025-05-22 12:21:54.131,89701,17916,17911,78848,102555
2025-05-22 12:21:54.159,89701,17900,17897,78837,102537
2025-05-22 12:21:54.161,89683,17888,17879,78840,102531
2025-05-22 12:21:54.163,89676,17869,17871,78829,102517
2025-05-22 12:21:54.171,89671,17853,17845,78804,102506
2025-05-22 12:21:54.183,89659,17836,17834,78793,102463
2025-05-22 12:21:54.191,89635,17823,17821,78763,102458
2025-05-22 12:21:54.204,89621,17808,17813,78741,102425
2025-05-22 12:21:54.227,89609,17804,17807,78720,102398
2025-05-22 12:21:54.228,89610,17793,17802,78717,102390
2025-05-22 12:21:54.236,89606,17783,17801,78708,102396
2025-05-22 12:21:54.243,89577,17785,17797,78712,102391
2025-05-22 12:21:54.255,89562,17775,17800,78701,102394
2025-05-22 12:21:54.264,89555,17781,17797,78704,102415
2025-05-22 12:21:54.275,89542,17776,17797,78719,102416
2025-05-22 12:21:54.294,89520,17772,17794,78714,102406
2025-05-22 12:21:54.296,89493,17765,17796,78715,102440
2025-05-22 12:21:54.304,89470,17754,17791,78735,102443
2025-05-22 12:21:54.316,89442,17750,17784,78746,102464
2025-05-22 12:21:54.323,89404,17735,17785,78765,102471
2025-05-22 12:21:54.336,89398,17729,17765,78764,102474
2025-05-22 12:21:54.343,89369,17714,17760,78767,102471
2025-05-22 12:21:54.362,89345,17693,17742,78733,102422
2025-05-22 12:21:54.364,89334,17666,17735,78711,102393
2025-05-22 12:21:54.375,89296,17642,17709,78677,102340
2025-05-22 12:21:54.384,89282,17625,17694,78611,102265
2025-05-22 12:21:54.396,89262,17602,17678,78580,102224
2025-05-22 12:21:54.403,89236,17587,17662,78537,102189
2025-05-22 12:21:54.428,89229,17563,17650,78530,102161
2025-05-22 12:21:54.430,89208,17555,17644,78501,102154
2025-05-22 12:21:54.435,89210,17557,17633,78497,102157
2025-05-22 12:21:54.444,89187,17555,17628,78498,102141
2025-05-22 12:21:54.456,89186,17551,17624,78506,102178
2025-05-22 12:21:54.463,89179,17543,17622,78518,102183
2025-05-22 12:21:54.475,89163,17527,17630,78509,102147
2025-05-22 12:21:54.496,89137,17527,17621,78481,102130
2025-05-22 12:21:54.498,89107,17525,17618,78474,102110
2025-05-22 12:21:54.508,89077,17521,17624,78454,102098
2025-05-22 12:21:54.515,89064,17514,17630,78428,102069
2025-05-22 12:21:54.527,89060,17510,17621,78417,102048
2025-05-22 12:21:54.535,89065,17516,17617,78422,102062
2025-05-22 12:21:54.566,89078,17518,17633,78421,102053
2025-05-22 12:21:54.567,89061,17518,17635,78422,102048
2025-05-22 12:21:54.569,89061,17518,17635,78422,102048
2025-05-22 12:21:54.570,89044,17504,17641,78384,102015
2025-05-22 12:21:54.575,89027,17506,17635,78346,101993
2025-05-22 12:21:54.588,89005,17498,17635,78330,101968
2025-05-22 12:21:54.595,88987,17488,17637,78292,101926
2025-05-22 12:21:54.607,88973,17486,17629,78269,101887
2025-05-22 12:21:54.633,88949,17477,17639,78245,101867
2025-05-22 12:21:54.635,88953,17481,17630,78224,101865
2025-05-22 12:21:54.636,88949,17489,17638,78229,101861
2025-05-22 12:21:54.648,88932,17482,17637,78219,101841
2025-05-22 12:21:54.655,88919,17479,17638,78213,101852
2025-05-22 12:21:54.667,88914,17481,17644,78209,101862
2025-05-22 12:21:54.675,88902,17484,17644,78218,101841
2025-05-22 12:21:54.701,88897,17485,17653,78203,101842
2025-05-22 12:21:54.702,88880,17482,17656,78194,101818
2025-05-22 12:21:54.707,88875,17475,17651,78180,101819
2025-05-22 12:21:54.716,88852,17471,17657,78139,101771
2025-05-22 12:21:54.727,88849,17472,17660,78128,101746
2025-05-22 12:21:54.735,88843,17469,17655,78089,101731
2025-05-22 12:21:54.747,88842,17470,17663,78079,101703
2025-05-22 12:21:54.769,88848,17474,17659,78061,101699
2025-05-22 12:21:54.770,88842,17470,17660,78067,101663
2025-05-22 12:21:54.780,88834,17482,17669,78033,101675
2025-05-22 12:21:54.788,88834,17479,17677,78031,101663
2025-05-22 12:21:54.800,88816,17472,17681,78034,101672
2025-05-22 12:21:54.807,88821,17473,17679,78023,101649
2025-05-22 12:21:54.835,88814,17477,17682,78016,101643
2025-05-22 12:21:54.837,88804,17486,17690,78007,101644
2025-05-22 12:21:54.839,88815,17478,17693,78001,101626
2025-05-22 12:21:54.848,88801,17476,17700,77989,101616
2025-05-22 12:21:54.859,88792,17472,17699,77955,101578
2025-05-22 12:21:54.867,88766,17475,17705,77935,101562
2025-05-22 12:21:54.879,88725,17463,17702,77906,101524
2025-05-22 12:21:54.901,88669,17442,17696,77894,101500
2025-05-22 12:21:54.903,88628,17427,17678,77840,101457
2025-05-22 12:21:54.907,88582,17385,17655,77822,101420
2025-05-22 12:21:54.920,88533,17368,17631,77802,101387
2025-05-22 12:21:54.927,88509,17339,17597,77788,101378
2025-05-22 12:21:54.940,88471,17304,17562,77783,101343
2025-05-22 12:21:54.947,88441,17275,17531,77773,101313
2025-05-22 12:21:54.970,88409,17234,17500,77739,101278
2025-05-22 12:21:54.971,88384,17198,17464,77727,101246
2025-05-22 12:21:54.979,88342,17164,17429,77690,101225
2025-05-22 12:21:54.988,88319,17130,17393,77676,101186
2025-05-22 12:21:54.999,88293,17096,17358,77639,101126
2025-05-22 12:21:55.007,88275,17064,17330,77590,101088
2025-05-22 12:21:55.040,88255,17036,17305,77577,101032
2025-05-22 12:21:55.041,88252,17016,17290,77569,101029
2025-05-22 12:21:55.043,88230,17001,17258,77544,101018
2025-05-22 12:21:55.052,88220,16987,17260,77536,100994
2025-05-22 12:21:55.059,88194,16981,17246,77528,100996
2025-05-22 12:21:55.072,88181,16971,17241,77519,100992
2025-05-22 12:21:55.079,88151,16964,17232,77533,100994
2025-05-22 12:21:55.107,88155,16958,17232,77547,101008
2025-05-22 12:21:55.109,88141,16957,17227,77569,101017
2025-05-22 12:21:55.111,88119,16954,17221,77587,101054
2025-05-22 12:21:55.119,88085,16959,17227,77597,101080
2025-05-22 12:21:55.131,88066,16948,17223,77605,101088
2025-05-22 12:21:55.139,88060,16954,17221,77620,101105
2025-05-22 12:21:55.151,88043,16952,17232,77637,101120
2025-05-22 12:21:55.178,88019,16942,17235,77637,101128
2025-05-22 12:21:55.179,87999,16943,17240,77643,101128
2025-05-22 12:21:55.181,87989,16939,17233,77627,101099
2025-05-22 12:21:55.191,87959,16937,17230,77624,101105
2025-05-22 12:21:55.199,87936,16924,17229,77599,101058
2025-05-22 12:21:55.211,87924,16914,17220,77564,101043
2025-05-22 12:21:55.219,87915,16907,17212,77552,101026
2025-05-22 12:21:55.247,87898,16910,17204,77533,100999
2025-05-22 12:21:55.249,87888,16885,17211,77505,100978
2025-05-22 12:21:55.252,87881,16894,17209,77484,100939
2025-05-22 12:21:55.260,87867,16886,17201,77464,100907
2025-05-22 12:21:55.271,87849,16863,17197,77444,100900
2025-05-22 12:21:55.280,87827,16853,17183,77429,100854
2025-05-22 12:21:55.291,87816,16851,17184,77392,100806
2025-05-22 12:21:55.315,87803,16832,17171,77359,100779
2025-05-22 12:21:55.317,87792,16831,17167,77341,100767
2025-05-22 12:21:55.322,87785,16829,17163,77337,100761
2025-05-22 12:21:55.331,87791,16828,17152,77323,100723
2025-05-22 12:21:55.344,87787,16822,17155,77324,100756
2025-05-22 12:21:55.352,87783,16830,17154,77324,100747
2025-05-22 12:21:55.363,87770,16825,17159,77302,100707
2025-05-22 12:21:55.383,87750,16810,17151,77272,100675
2025-05-22 12:21:55.384,87733,16816,17156,77260,100665
2025-05-22 12:21:55.391,87731,16815,17155,77240,100640
2025-05-22 12:21:55.403,87716,16818,17166,77243,100640
2025-05-22 12:21:55.411,87733,16824,17164,77226,100632
2025-05-22 12:21:55.423,87710,16830,17170,77221,100628
2025-05-22 12:21:55.431,87732,16841,17163,77214,100618
2025-05-22 12:21:55.450,87731,16834,17174,77193,100610
2025-05-22 12:21:55.452,87730,16845,17187,77185,100589
2025-05-22 12:21:55.464,87735,16854,17192,77151,100570
2025-05-22 12:21:55.471,87738,16852,17199,77143,100540
2025-05-22 12:21:55.484,87725,16854,17206,77127,100511
2025-05-22 12:21:55.491,87735,16853,17206,77113,100495
2025-05-22 12:21:55.521,87732,16865,17218,77102,100503
2025-05-22 12:21:55.523,87747,16873,17226,77077,100472
2025-05-22 12:21:55.524,87733,16876,17226,77077,100468
2025-05-22 12:21:55.531,87730,16875,17231,77059,100448
2025-05-22 12:21:55.543,87738,16880,17247,77047,100442
2025-05-22 12:21:55.552,87704,16888,17245,77025,100426
2025-05-22 12:21:55.564,87716,16892,17253,77013,100420
2025-05-22 12:21:55.567,87716,16892,17253,77013,100420
2025-05-22 12:21:55.588,87711,16916,17274,77022,100433
2025-05-22 12:21:55.590,87718,16910,17274,77015,100422
2025-05-22 12:21:55.591,87714,16909,17282,77016,100422
2025-05-22 12:21:55.604,87711,16927,17282,76995,100407
2025-05-22 12:21:55.615,87709,16933,17293,77005,100406
2025-05-22 12:21:55.622,87704,16932,17295,76993,100420
2025-05-22 12:21:55.636,87688,16944,17305,76985,100413
2025-05-22 12:21:55.654,87689,16938,17308,76968,100364
2025-05-22 12:21:55.656,87687,16949,17316,76956,100361
2025-05-22 12:21:55.663,87666,16950,17315,76945,100349
2025-05-22 12:21:55.676,87682,16946,17318,76930,100308
2025-05-22 12:21:55.683,87676,16960,17330,76914,100300
2025-05-22 12:21:55.695,87663,16963,17347,76911,100313
2025-05-22 12:21:55.703,87690,16980,17350,76928,100324
2025-05-22 12:21:55.722,87690,16982,17354,76915,100319
2025-05-22 12:21:55.724,87679,16990,17359,76904,100311
2025-05-22 12:21:55.735,87679,17000,17361,76900,100313
2025-05-22 12:21:55.743,87674,17016,17388,76913,100313
2025-05-22 12:21:55.756,87678,17020,17390,76915,100321
2025-05-22 12:21:55.763,87697,17038,17399,76916,100322
2025-05-22 12:21:55.790,87693,17045,17415,76918,100341
2025-05-22 12:21:55.792,87706,17067,17423,76926,100354
2025-05-22 12:21:55.795,87693,17066,17438,76932,100358
2025-05-22 12:21:55.804,87660,17069,17445,76910,100323
2025-05-22 12:21:55.815,87623,17058,17456,76896,100317
2025-05-22 12:21:55.823,87596,17057,17450,76882,100288
2025-05-22 12:21:55.835,87565,17051,17450,76868,100258
2025-05-22 12:21:55.858,87523,17039,17427,76853,100241
2025-05-22 12:21:55.859,87495,17013,17414,76863,100237
2025-05-22 12:21:55.863,87477,17006,17391,76848,100234
2025-05-22 12:21:55.876,87430,16970,17363,76858,100226
2025-05-22 12:21:55.887,87405,16944,17336,76841,100212
2025-05-22 12:21:55.895,87388,16919,17299,76826,100177
2025-05-22 12:21:55.927,87364,16902,17278,76801,100151
2025-05-22 12:21:55.928,87346,16874,17248,76805,100133
2025-05-22 12:21:55.929,87301,16847,17215,76784,100112
2025-05-22 12:21:55.935,87279,16826,17185,76760,100075
2025-05-22 12:21:55.947,87269,16801,17155,76738,100069
2025-05-22 12:21:55.956,87262,16788,17137,76730,100054
2025-05-22 12:21:55.968,87262,16785,17118,76728,100051
2025-05-22 12:21:55.975,87256,16773,17123,76744,100042
2025-05-22 12:21:55.994,87262,16776,17111,76734,100055
2025-05-22 12:21:55.996,87266,16764,17109,76744,100058
2025-05-22 12:21:56.007,87263,16761,17104,76726,100060
2025-05-22 12:21:56.015,87251,16755,17102,76714,100021
2025-05-22 12:21:56.027,87257,16747,17096,76698,100023
2025-05-22 12:21:56.036,87254,16745,17103,76709,99996
2025-05-22 12:21:56.063,87238,16756,17100,76703,99992
2025-05-22 12:21:56.065,87237,16748,17104,76699,100018
2025-05-22 12:21:56.067,87222,16751,17098,76706,100010
2025-05-22 12:21:56.075,87213,16747,17100,76693,100006
2025-05-22 12:21:56.088,87196,16757,17102,76694,100014
2025-05-22 12:21:56.095,87193,16752,17105,76685,100013
2025-05-22 12:21:56.107,87177,16752,17105,76692,100019
2025-05-22 12:21:56.134,87183,16761,17112,76697,100016
2025-05-22 12:21:56.135,87167,16772,17115,76695,100023
2025-05-22 12:21:56.137,87158,16769,17129,76707,100028
2025-05-22 12:21:56.147,87148,16767,17128,76705,100031
2025-05-22 12:21:56.155,87141,16760,17132,76702,100026
2025-05-22 12:21:56.167,87112,16762,17128,76693,100020
2025-05-22 12:21:56.179,87092,16759,17116,76671,100002
2025-05-22 12:21:56.203,87081,16758,17123,76676,100001
2025-05-22 12:21:56.204,87072,16749,17114,76664,99977
2025-05-22 12:21:56.207,87054,16743,17104,76652,99975
2025-05-22 12:21:56.220,87025,16740,17106,76651,99959
2025-05-22 12:21:56.227,87039,16736,17096,76639,99956
2025-05-22 12:21:56.239,87035,16735,17097,76635,99930
2025-05-22 12:21:56.248,87043,16730,17092,76614,99932
2025-05-22 12:21:56.270,87025,16722,17091,76609,99898
2025-05-22 12:21:56.271,87020,16722,17085,76580,99884
2025-05-22 12:21:56.279,87009,16711,17086,76556,99855
2025-05-22 12:21:56.286,87005,16712,17088,76547,99858
2025-05-22 12:21:56.299,87015,16711,17070,76535,99831
2025-05-22 12:21:56.307,87002,16716,17088,76534,99828
2025-05-22 12:21:56.337,87017,16715,17092,76539,99831
2025-05-22 12:21:56.338,87006,16728,17088,76531,99831
2025-05-22 12:21:56.340,86993,16733,17094,76535,99833
2025-05-22 12:21:56.347,86988,16735,17106,76549,99839
2025-05-22 12:21:56.360,86976,16741,17109,76557,99852
2025-05-22 12:21:56.367,86968,16755,17109,76551,99831
2025-05-22 12:21:56.379,86955,16761,17119,76550,99864
2025-05-22 12:21:56.404,86970,16761,17129,76544,99864
2025-05-22 12:21:56.406,86961,16772,17135,76563,99872
2025-05-22 12:21:56.408,86955,16783,17147,76581,99902
2025-05-22 12:21:56.419,86956,16789,17153,76567,99869
2025-05-22 12:21:56.427,86954,16803,17169,76575,99898
2025-05-22 12:21:56.439,86955,16803,17176,76573,99888
2025-05-22 12:21:56.447,86943,16815,17180,76580,99881
2025-05-22 12:21:56.475,86928,16819,17186,76577,99904
2025-05-22 12:21:56.477,86948,16823,17199,76577,99911
2025-05-22 12:21:56.479,86929,16836,17203,76569,99899
2025-05-22 12:21:56.487,86929,16843,17200,76576,99910
2025-05-22 12:21:56.499,86904,16846,17223,76586,99925
2025-05-22 12:21:56.508,86924,16855,17225,76608,99928
2025-05-22 12:21:56.519,86910,16873,17237,76600,99935
2025-05-22 12:21:56.545,86922,16878,17242,76602,99948
2025-05-22 12:21:56.547,86912,16882,17250,76612,99950
2025-05-22 12:21:56.551,86916,16888,17258,76615,99954
2025-05-22 12:21:56.558,86916,16896,17265,76601,99951
2025-05-22 12:21:56.571,86895,16890,17273,76597,99943
2025-05-22 12:21:56.578,86903,16890,17277,76595,99925
2025-05-22 12:21:56.591,86899,16894,17277,76564,99916
2025-05-22 12:21:56.613,86889,16905,17284,76567,99893
2025-05-22 12:21:56.614,86892,16920,17290,76550,99877
2025-05-22 12:21:56.620,86890,16920,17306,76571,99907
2025-05-22 12:21:56.631,86871,16928,17312,76575,99913
2025-05-22 12:21:56.639,86885,16932,17320,76578,99904
2025-05-22 12:21:56.652,86881,16941,17326,76570,99906
2025-05-22 12:21:56.659,86873,16943,17333,76579,99904
2025-05-22 12:21:56.680,86859,16946,17337,76579,99907
2025-05-22 12:21:56.681,86872,16961,17338,76576,99910
2025-05-22 12:21:56.691,86891,16965,17344,76565,99922
2025-05-22 12:21:56.700,86904,16991,17355,76564,99920
2025-05-22 12:21:56.710,86907,17004,17375,76582,99930
2025-05-22 12:21:56.720,86894,17009,17381,76578,99921
2025-05-22 12:21:56.746,86897,17006,17384,76561,99917
2025-05-22 12:21:56.748,86870,17004,17390,76552,99891
2025-05-22 12:21:56.751,86855,17003,17389,76537,99878
2025-05-22 12:21:56.760,86827,16993,17386,76538,99849
2025-05-22 12:21:56.772,86804,16987,17371,76512,99833
2025-05-22 12:21:56.779,86761,16967,17367,76501,99810
2025-05-22 12:21:56.791,86734,16954,17342,76490,99797
2025-05-22 12:21:56.814,86712,16920,17320,76473,99782
2025-05-22 12:21:56.816,86683,16898,17279,76445,99740
2025-05-22 12:21:56.820,86687,16866,17238,76433,99708
2025-05-22 12:21:56.831,86683,16850,17196,76410,99696
2025-05-22 12:21:56.839,86702,16830,17177,76400,99683
2025-05-22 12:21:56.851,86711,16802,17141,76403,99686
2025-05-22 12:21:56.859,86717,16773,17112,76363,99635
2025-05-22 12:21:56.881,86761,16736,17062,76331,99605
2025-05-22 12:21:56.883,86868,16715,16983,76362,99704
2025-05-22 12:21:56.891,87095,16732,16913,76442,99881
2025-05-22 12:21:56.899,87334,16780,16914,76643,100170
2025-05-22 12:21:56.911,87480,16811,16948,76868,100438
2025-05-22 12:21:56.923,87570,16836,16989,77013,100608
2025-05-22 12:21:56.950,87558,16873,17009,77118,100729
2025-05-22 12:21:56.951,87499,16869,17026,77244,100857
2025-05-22 12:21:56.952,87489,16872,16966,77357,100987
2025-05-22 12:21:56.964,87628,16859,16884,77488,101127
2025-05-22 12:21:56.972,87874,16901,16809,77563,101246
2025-05-22 12:21:56.974,87874,16901,16809,77563,101246
2025-05-22 12:21:56.984,88313,17051,16859,78200,101931
2025-05-22 12:21:56.991,88317,17085,16938,78463,102221
2025-05-22 12:21:57.018,88187,17085,16954,78575,102319
2025-05-22 12:21:57.020,88149,17030,16877,78574,102284
2025-05-22 12:21:57.023,88253,16976,16769,78352,102037
2025-05-22 12:21:57.031,88380,16914,16735,78098,101781
2025-05-22 12:21:57.043,88443,16858,16732,77809,101457
2025-05-22 12:21:57.051,88500,16802,16693,77506,101149
2025-05-22 12:21:57.063,88618,16753,16652,77254,100877
2025-05-22 12:21:57.085,88705,16733,16641,77087,100704
2025-05-22 12:21:57.087,88729,16704,16648,76992,100606
2025-05-22 12:21:57.091,88738,16657,16632,76852,100435
2025-05-22 12:21:57.103,88795,16616,16588,76641,100225
2025-05-22 12:21:57.111,88881,16591,16566,76494,100063
2025-05-22 12:21:57.124,88992,16584,16541,76406,99993
2025-05-22 12:21:57.132,89154,16595,16547,76435,100050
2025-05-22 12:21:57.153,89382,16626,16548,76536,100212
2025-05-22 12:21:57.154,89654,16650,16556,76706,100437
2025-05-22 12:21:57.163,89966,16650,16532,76906,100697
2025-05-22 12:21:57.174,90270,16636,16493,77113,100969
2025-05-22 12:21:57.183,90525,16621,16448,77306,101185
2025-05-22 12:21:57.192,90726,16630,16437,77519,101395
2025-05-22 12:21:57.220,90870,16634,16469,77715,101583
2025-05-22 12:21:57.221,91022,16637,16495,77826,101693
2025-05-22 12:21:57.223,91133,16628,16527,77898,101757
2025-05-22 12:21:57.235,91202,16618,16555,77930,101753
2025-05-22 12:21:57.243,91291,16605,16583,77875,101676
2025-05-22 12:21:57.255,91386,16605,16610,77830,101571
2025-05-22 12:21:57.262,91477,16606,16651,77784,101519
2025-05-22 12:21:57.288,91536,16585,16688,77717,101436
2025-05-22 12:21:57.289,91586,16573,16694,77641,101340
2025-05-22 12:21:57.295,91642,16579,16687,77602,101281
2025-05-22 12:21:57.303,91714,16602,16716,77628,101294
2025-05-22 12:21:57.315,91793,16623,16759,77698,101360
2025-05-22 12:21:57.323,91887,16640,16796,77735,101389
2025-05-22 12:21:57.335,91971,16652,16821,77744,101392
2025-05-22 12:21:57.356,92048,16670,16851,77744,101365
2025-05-22 12:21:57.358,92097,16670,16884,77706,101322
2025-05-22 12:21:57.363,92170,16669,16910,77647,101232
2025-05-22 12:21:57.376,92236,16658,16937,77550,101119
2025-05-22 12:21:57.383,92268,16641,16941,77456,100967
2025-05-22 12:21:57.395,92288,16616,16957,77330,100833
2025-05-22 12:21:57.403,92289,16618,16953,77259,100711
2025-05-22 12:21:57.423,92275,16631,16971,77230,100651
2025-05-22 12:21:57.425,92269,16660,16989,77238,100667
2025-05-22 12:21:57.434,92266,16677,17011,77263,100676
2025-05-22 12:21:57.443,92285,16698,17053,77294,100684
2025-05-22 12:21:57.455,92276,16727,17085,77321,100706
2025-05-22 12:21:57.463,92264,16742,17118,77343,100706
2025-05-22 12:21:57.491,92258,16769,17149,77385,100727
2025-05-22 12:21:57.492,92241,16790,17187,77402,100741
2025-05-22 12:21:57.495,92235,16810,17207,77453,100772
2025-05-22 12:21:57.507,92252,16817,17218,77484,100797
2025-05-22 12:21:57.515,92250,16830,17248,77496,100796
2025-05-22 12:21:57.527,92259,16820,17262,77518,100790
2025-05-22 12:21:57.535,92253,16832,17273,77524,100775
2025-05-22 12:21:57.559,92263,16839,17296,77503,100738
2025-05-22 12:21:57.561,92246,16840,17305,77502,100693
2025-05-22 12:21:57.567,92229,16857,17328,77493,100679
2025-05-22 12:21:57.575,92204,16867,17344,77488,100655
2025-05-22 12:21:57.586,92166,16867,17363,77466,100646
2025-05-22 12:21:57.595,92124,16871,17369,77439,100604
2025-05-22 12:21:57.606,92092,16866,17373,77405,100528
2025-05-22 12:21:57.626,92043,16874,17382,77354,100465
2025-05-22 12:21:57.627,92024,16889,17379,77313,100419
2025-05-22 12:21:57.635,92004,16894,17403,77306,100406
2025-05-22 12:21:57.647,91981,16910,17407,77307,100409
2025-05-22 12:21:57.655,91961,16925,17411,77318,100409
2025-05-22 12:21:57.667,91942,16938,17430,77330,100409
2025-05-22 12:21:57.675,91891,16934,17444,77319,100399
2025-05-22 12:21:57.694,91845,16938,17443,77289,100346
2025-05-22 12:21:57.695,91794,16921,17435,77259,100295
2025-05-22 12:21:57.707,91736,16903,17419,77196,100213
2025-05-22 12:21:57.715,91696,16885,17391,77155,100156
2025-05-22 12:21:57.728,91662,16872,17380,77122,100109
2025-05-22 12:21:57.736,91642,16880,17365,77120,100077
2025-05-22 12:21:57.764,91658,16888,17364,77157,100113
2025-05-22 12:21:57.767,91621,16890,17366,77181,100140
2025-05-22 12:21:57.769,91581,16898,17352,77223,100172
2025-05-22 12:21:57.779,91534,16895,17344,77266,100220
2025-05-22 12:21:57.787,91503,16904,17338,77299,100291
2025-05-22 12:21:57.799,91493,16916,17328,77385,100356
2025-05-22 12:21:57.807,91501,16926,17323,77451,100425
2025-05-22 12:21:57.833,91505,16923,17312,77499,100478
2025-05-22 12:21:57.835,91485,16922,17309,77515,100503
2025-05-22 12:21:57.839,91437,16918,17298,77488,100464
2025-05-22 12:21:57.847,91363,16917,17301,77420,100408
2025-05-22 12:21:57.859,91293,16911,17307,77398,100366
2025-05-22 12:21:57.867,91215,16915,17298,77376,100364
2025-05-22 12:21:57.879,91194,16927,17289,77367,100364
2025-05-22 12:21:57.900,91170,16945,17292,77433,100432
2025-05-22 12:21:57.901,91164,16947,17299,77490,100493
2025-05-22 12:21:57.907,91149,16955,17312,77517,100518
2025-05-22 12:21:57.919,91124,16964,17318,77515,100531
2025-05-22 12:21:57.927,91084,16985,17327,77516,100529
2025-05-22 12:21:57.939,91023,17004,17347,77543,100572
2025-05-22 12:21:57.947,90936,17027,17380,77561,100597
2025-05-22 12:21:57.967,90817,17023,17390,77563,100613
2025-05-22 12:21:57.969,90704,17032,17388,77531,100591
2025-05-22 12:21:57.979,90577,17034,17394,77515,100613
2025-05-22 12:21:57.983,90577,17034,17394,77515,100613
2025-05-22 12:21:57.987,90440,17057,17399,77456,100553
2025-05-22 12:21:58.000,90411,17062,17400,77450,100569
2025-05-22 12:21:58.007,90375,17058,17399,77441,100576
2025-05-22 12:21:58.036,90358,17057,17396,77435,100559
2025-05-22 12:21:58.038,90309,17049,17397,77384,100519
2025-05-22 12:21:58.039,90283,17043,17378,77308,100442
2025-05-22 12:21:58.051,90262,17033,17372,77278,100403
2025-05-22 12:21:58.059,90269,17037,17371,77254,100394
2025-05-22 12:21:58.071,90262,17033,17368,77252,100388
2025-05-22 12:21:58.079,90243,17030,17363,77239,100371
2025-05-22 12:21:58.103,90217,17023,17371,77202,100333
2025-05-22 12:21:58.104,90206,17014,17369,77197,100318
2025-05-22 12:21:58.111,90178,17005,17357,77164,100298
2025-05-22 12:21:58.119,90186,17008,17357,77136,100268
2025-05-22 12:21:58.131,90208,17005,17353,77137,100246
2025-05-22 12:21:58.139,90254,17023,17350,77152,100269
2025-05-22 12:21:58.151,90269,17035,17357,77169,100305
2025-05-22 12:21:58.172,90267,17043,17370,77197,100332
2025-05-22 12:21:58.173,90260,17042,17376,77199,100339
2025-05-22 12:21:58.179,90249,17043,17379,77181,100312
2025-05-22 12:21:58.191,90215,17041,17383,77155,100309
2025-05-22 12:21:58.200,90196,17050,17389,77125,100285
2025-05-22 12:21:58.212,90168,17051,17394,77139,100268
2025-05-22 12:21:58.219,90139,17065,17401,77129,100275
2025-05-22 12:21:58.239,90119,17069,17411,77137,100272
2025-05-22 12:21:58.240,90105,17087,17424,77133,100300
2025-05-22 12:21:58.251,90102,17107,17437,77168,100343
2025-05-22 12:21:58.259,90101,17127,17444,77167,100348
2025-05-22 12:21:58.272,90101,17121,17457,77183,100356
2025-05-22 12:21:58.279,90095,17131,17462,77176,100366
2025-05-22 12:21:58.307,90122,17114,17458,77149,100341
2025-05-22 12:21:58.308,90129,17115,17452,77131,100302
2025-05-22 12:21:58.311,90152,17117,17456,77117,100307
2025-05-22 12:21:58.324,90187,17122,17466,77112,100289
2025-05-22 12:21:58.331,90190,17134,17469,77127,100289
2025-05-22 12:21:58.343,90204,17151,17490,77143,100310
2025-05-22 12:21:58.351,90210,17164,17502,77177,100356
2025-05-22 12:21:58.376,90203,17157,17514,77201,100380
2025-05-22 12:21:58.377,90185,17159,17513,77203,100360
2025-05-22 12:21:58.383,90141,17154,17518,77171,100333
2025-05-22 12:21:58.391,90172,17153,17509,77135,100285
2025-05-22 12:21:58.403,90186,17161,17513,77127,100269
2025-05-22 12:21:58.411,90167,17158,17526,77145,100265
2025-05-22 12:21:58.423,90143,17178,17545,77138,100273
2025-05-22 12:21:58.442,90078,17197,17569,77137,100258
2025-05-22 12:21:58.444,90055,17208,17576,77134,100276
2025-05-22 12:21:58.452,90006,17214,17589,77137,100273
2025-05-22 12:21:58.463,90007,17216,17590,77135,100299
2025-05-22 12:21:58.471,89974,17236,17593,77148,100304
2025-05-22 12:21:58.483,89965,17226,17596,77113,100256
2025-05-22 12:21:58.513,89948,17219,17602,77069,100229
2025-05-22 12:21:58.515,89939,17221,17603,77010,100146
2025-05-22 12:21:58.516,89945,17230,17602,77000,100123
2025-05-22 12:21:58.523,89946,17237,17610,76990,100115
2025-05-22 12:21:58.532,89940,17268,17621,76988,100134
2025-05-22 12:21:58.543,89900,17271,17646,77025,100159
2025-05-22 12:21:58.551,89822,17317,17665,77074,100212
2025-05-22 12:21:58.582,89710,17317,17693,77133,100278
2025-05-22 12:21:58.583,89546,17331,17720,77146,100293
2025-05-22 12:21:58.585,89379,17331,17720,77163,100309
2025-05-22 12:21:58.594,89219,17317,17728,77128,100296
2025-05-22 12:21:58.603,89078,17312,17731,77064,100212
2025-05-22 12:21:58.615,88980,17299,17721,76991,100140
2025-05-22 12:21:58.622,88891,17306,17722,76945,100096
2025-05-22 12:21:58.650,88814,17302,17727,76939,100083
2025-05-22 12:21:58.651,88783,17290,17724,76929,100089
2025-05-22 12:21:58.655,88751,17300,17717,76912,100047
2025-05-22 12:21:58.663,88709,17277,17710,76915,100041
2025-05-22 12:21:58.675,88643,17276,17700,76874,100005
2025-05-22 12:21:58.683,88594,17278,17680,76881,100004
2025-05-22 12:21:58.695,88534,17258,17666,76864,99969
2025-05-22 12:21:58.720,88478,17257,17640,76826,99937
2025-05-22 12:21:58.721,88418,17245,17624,76803,99907
2025-05-22 12:21:58.723,88343,17259,17609,76817,99919
2025-05-22 12:21:58.735,88265,17228,17595,76781,99907
2025-05-22 12:21:58.743,88219,17226,17563,76723,99831
2025-05-22 12:21:58.755,88192,17214,17550,76695,99816
2025-05-22 12:21:58.762,88190,17199,17539,76659,99782
2025-05-22 12:21:58.793,88150,17184,17528,76625,99754
2025-05-22 12:21:58.795,88151,17167,17500,76545,99674
2025-05-22 12:21:58.796,88159,17146,17488,76454,99585
2025-05-22 12:21:58.803,88202,17143,17479,76387,99512
2025-05-22 12:21:58.815,88236,17142,17476,76354,99490
2025-05-22 12:21:58.823,88258,17138,17484,76337,99480
2025-05-22 12:21:58.835,88273,17127,17467,76303,99438
2025-05-22 12:21:58.862,88278,17123,17482,76243,99382
2025-05-22 12:21:58.864,88294,17122,17467,76201,99361
2025-05-22 12:21:58.865,88323,17113,17467,76171,99321
2025-05-22 12:21:58.875,88326,17117,17459,76144,99296
2025-05-22 12:21:58.883,88335,17116,17443,76123,99284
2025-05-22 12:21:58.895,88328,17117,17455,76113,99266
2025-05-22 12:21:58.903,88294,17117,17448,76087,99256
2025-05-22 12:21:58.933,88253,17113,17453,76073,99222
2025-05-22 12:21:58.934,88185,17108,17436,76044,99194
2025-05-22 12:21:58.936,88120,17096,17441,75995,99142
2025-05-22 12:21:58.943,88064,17092,17451,75951,99095
2025-05-22 12:21:58.955,87968,17096,17449,75912,99044
2025-05-22 12:21:58.967,87867,17105,17484,75923,99061
2025-05-22 12:21:58.975,87742,17116,17518,75955,99092
2025-05-22 12:21:59.002,87616,17131,17515,75997,99135
2025-05-22 12:21:59.003,87477,17140,17543,76051,99183
2025-05-22 12:21:59.007,87342,17146,17544,76083,99210
2025-05-22 12:21:59.015,87206,17147,17560,76104,99238
2025-05-22 12:21:59.026,87100,17155,17553,76118,99260
2025-05-22 12:21:59.035,86980,17166,17553,76143,99272
2025-05-22 12:21:59.047,86873,17181,17564,76187,99305
2025-05-22 12:21:59.069,86743,17175,17581,76222,99361
2025-05-22 12:21:59.071,86634,17202,17598,76281,99417
2025-05-22 12:21:59.074,86529,17218,17617,76346,99486
2025-05-22 12:21:59.087,86420,17226,17631,76437,99576
2025-05-22 12:21:59.095,86326,17221,17640,76483,99604
2025-05-22 12:21:59.107,86272,17215,17634,76485,99615
2025-05-22 12:21:59.115,86219,17216,17636,76467,99592
2025-05-22 12:21:59.137,86175,17221,17639,76451,99568
2025-05-22 12:21:59.138,86123,17202,17643,76431,99537
2025-05-22 12:21:59.148,86069,17196,17625,76397,99510
2025-05-22 12:21:59.155,85998,17185,17635,76353,99448
2025-05-22 12:21:59.167,85945,17167,17638,76317,99386
2025-05-22 12:21:59.175,85893,17161,17635,76276,99347
2025-05-22 12:21:59.206,85815,17161,17628,76262,99346
2025-05-22 12:21:59.207,85815,17161,17628,76262,99346
2025-05-22 12:21:59.209,85665,17152,17635,76262,99336
2025-05-22 12:21:59.210,85572,17139,17640,76280,99364
2025-05-22 12:21:59.215,85492,17143,17633,76275,99332
2025-05-22 12:21:59.227,85430,17163,17633,76275,99332
2025-05-22 12:21:59.234,85373,17180,17656,76350,99432
2025-05-22 12:21:59.247,85293,17199,17678,76434,99509
2025-05-22 12:21:59.273,85184,17192,17697,76481,99552
2025-05-22 12:21:59.275,85071,17180,17699,76487,99538
2025-05-22 12:21:59.276,84971,17187,17689,76468,99533
2025-05-22 12:21:59.287,84878,17191,17696,76506,99584
2025-05-22 12:21:59.294,84783,17220,17708,76592,99663
2025-05-22 12:21:59.307,84677,17233,17740,76701,99772
2025-05-22 12:21:59.315,84575,17251,17766,76795,99845
2025-05-22 12:21:59.341,84481,17270,17790,76865,99952
2025-05-22 12:21:59.343,84377,17298,17822,76972,100033
2025-05-22 12:21:59.347,84296,17310,17833,77059,100122
2025-05-22 12:21:59.359,84255,17334,17859,77100,100170
2025-05-22 12:21:59.367,84253,17347,17866,77141,100201
2025-05-22 12:21:59.378,84257,17368,17892,77173,100229
2025-05-22 12:21:59.387,84292,17381,17925,77203,100286
2025-05-22 12:21:59.410,84319,17380,17931,77213,100274
2025-05-22 12:21:59.412,84364,17391,17943,77170,100251
2025-05-22 12:21:59.419,84471,17402,17946,77132,100214
2025-05-22 12:21:59.427,84595,17406,17956,77074,100185
2025-05-22 12:21:59.438,84745,17418,17949,77033,100120
2025-05-22 12:21:59.447,84920,17422,17952,76997,100101
2025-05-22 12:21:59.459,85061,17419,17952,76914,100028
2025-05-22 12:21:59.480,85220,17405,17937,76799,99909
2025-05-22 12:21:59.481,85334,17409,17926,76668,99804
2025-05-22 12:21:59.487,85420,17428,17923,76654,99781
2025-05-22 12:21:59.499,85444,17459,17960,76699,99880
2025-05-22 12:21:59.506,85440,17464,17975,76703,99872
2025-05-22 12:21:59.519,85429,17469,17968,76725,99891
2025-05-22 12:21:59.527,85396,17468,17982,76748,99926
2025-05-22 12:21:59.547,85354,17490,17994,76788,99974
2025-05-22 12:21:59.548,85303,17505,18016,76847,100018
2025-05-22 12:21:59.558,85265,17539,18041,76901,100096
2025-05-22 12:21:59.567,85264,17569,18070,77017,100221
2025-05-22 12:21:59.579,85288,17604,18102,77091,100320
2025-05-22 12:21:59.590,85343,17617,18118,77169,100409
2025-05-22 12:21:59.614,85419,17624,18125,77164,100409
2025-05-22 12:21:59.615,85488,17641,18134,77186,100411
2025-05-22 12:21:59.619,85544,17658,18143,77174,100425
2025-05-22 12:21:59.630,85576,17660,18151,77172,100429
2025-05-22 12:21:59.638,85520,17645,18165,77130,100391
2025-05-22 12:21:59.651,85462,17634,18162,77077,100313
2025-05-22 12:21:59.659,85406,17622,18147,77050,100281
2025-05-22 12:21:59.687,85318,17605,18131,77020,100229
2025-05-22 12:21:59.689,85239,17598,18118,77018,100238
2025-05-22 12:21:59.691,85135,17591,18103,77054,100270
2025-05-22 12:21:59.699,85047,17575,18097,77093,100325
2025-05-22 12:21:59.711,84960,17551,18077,77137,100329
2025-05-22 12:21:59.719,84862,17510,18055,77129,100334
2025-05-22 12:21:59.731,84769,17477,18014,77127,100308
2025-05-22 12:21:59.756,84669,17430,17979,77117,100300
2025-05-22 12:21:59.758,84577,17381,17939,77095,100258
2025-05-22 12:21:59.760,84509,17334,17897,77035,100159
2025-05-22 12:21:59.771,84459,17288,17856,76943,100056
2025-05-22 12:21:59.779,84441,17229,17808,76841,99947
2025-05-22 12:21:59.791,84447,17189,17770,76764,99828
2025-05-22 12:21:59.798,84449,17165,17741,76657,99739
2025-05-22 12:21:59.824,84446,17123,17722,76563,99614
2025-05-22 12:21:59.825,84437,17091,17686,76447,99492
2025-05-22 12:21:59.831,84436,17066,17671,76355,99384
2025-05-22 12:21:59.839,84459,17060,17657,76327,99362
2025-05-22 12:21:59.851,84475,17046,17659,76354,99385
2025-05-22 12:21:59.859,84520,17036,17645,76325,99352
2025-05-22 12:21:59.871,84592,17034,17625,76303,99332
2025-05-22 12:21:59.890,84699,17020,17625,76267,99283
2025-05-22 12:21:59.892,84785,17018,17617,76234,99256
2025-05-22 12:21:59.899,84885,17008,17605,76186,99217
2025-05-22 12:21:59.911,85016,17011,17595,76128,99147
2025-05-22 12:21:59.919,85176,16997,17576,76067,99097
2025-05-22 12:21:59.931,85360,16980,17548,76015,99055
2025-05-22 12:21:59.939,85525,16971,17534,76001,99053
2025-05-22 12:21:59.959,85689,16970,17527,75980,99031
2025-05-22 12:21:59.960,85805,16969,17513,75972,99041
2025-05-22 12:21:59.971,85901,16968,17510,75951,99031
2025-05-22 12:21:59.983,85988,16965,17518,75955,99052
2025-05-22 12:21:59.991,86085,16957,17505,75956,99045
2025-05-22 12:22:00.003,86208,16956,17504,75949,99054
2025-05-22 12:22:00.028,86345,16949,17497,75964,99056
2025-05-22 12:22:00.030,86455,16954,17491,75935,99038
2025-05-22 12:22:00.031,86581,16956,17480,75930,99029
2025-05-22 12:22:00.043,86687,16960,17480,75943,99064
2025-05-22 12:22:00.050,86795,16957,17485,75951,99051
2025-05-22 12:22:00.062,86910,16961,17470,75953,99066
2025-05-22 12:22:00.071,87014,16953,17459,75926,99043
2025-05-22 12:22:00.097,87138,16952,17450,75903,99016
2025-05-22 12:22:00.099,87273,16951,17452,75910,99014
2025-05-22 12:22:00.103,87395,16964,17445,75919,99017
2025-05-22 12:22:00.111,87525,16978,17446,75943,99046
2025-05-22 12:22:00.122,87637,16977,17455,75954,99058
2025-05-22 12:22:00.131,87729,16969,17456,75949,99059
2025-05-22 12:22:00.143,87832,16975,17452,75951,99024
2025-05-22 12:22:00.166,87927,16983,17451,75947,98998
2025-05-22 12:22:00.167,88042,16988,17461,75951,99003
2025-05-22 12:22:00.171,88131,16996,17472,75988,99037
2025-05-22 12:22:00.183,88219,17015,17480,76014,99074
2025-05-22 12:22:00.191,88320,17033,17488,76049,99114
2025-05-22 12:22:00.203,88384,17046,17504,76091,99138
2025-05-22 12:22:00.211,88454,17066,17512,76113,99148
2025-05-22 12:22:00.233,88529,17076,17511,76128,99175
2025-05-22 12:22:00.234,88599,17100,17535,76171,99233
2025-05-22 12:22:00.244,88661,17103,17555,76213,99247
2025-05-22 12:22:00.251,88682,17117,17562,76214,99242
2025-05-22 12:22:00.263,88701,17130,17573,76223,99240
2025-05-22 12:22:00.270,88737,17139,17585,76222,99230
2025-05-22 12:22:00.300,88789,17158,17586,76243,99250
2025-05-22 12:22:00.302,88843,17171,17599,76248,99270
2025-05-22 12:22:00.303,88879,17188,17612,76280,99282
2025-05-22 12:22:00.311,88922,17208,17641,76316,99340
2025-05-22 12:22:00.323,88944,17218,17645,76347,99347
2025-05-22 12:22:00.335,88975,17235,17656,76367,99375
2025-05-22 12:22:00.342,88991,17255,17677,76368,99381
2025-05-22 12:22:00.369,89014,17266,17681,76399,99396
2025-05-22 12:22:00.370,89055,17265,17686,76392,99400
2025-05-22 12:22:00.375,89094,17287,17680,76404,99403
2025-05-22 12:22:00.383,89159,17289,17692,76423,99419
2025-05-22 12:22:00.394,89181,17299,17699,76459,99457
2025-05-22 12:22:00.403,89202,17314,17705,76456,99439
2025-05-22 12:22:00.415,89219,17324,17716,76469,99446
2025-05-22 12:22:00.438,89252,17327,17720,76472,99444
2025-05-22 12:22:00.440,89273,17329,17725,76459,99432
2025-05-22 12:22:00.443,89303,17346,17724,76460,99430
2025-05-22 12:22:00.454,89354,17353,17731,76476,99449
2025-05-22 12:22:00.463,89370,17368,17741,76504,99466
2025-05-22 12:22:00.475,89388,17387,17753,76529,99466
2025-05-22 12:22:00.482,89420,17390,17760,76532,99492
2025-05-22 12:22:00.508,89452,17409,17765,76567,99524
2025-05-22 12:22:00.510,89481,17422,17790,76606,99565
2025-05-22 12:22:00.515,89499,17444,17793,76634,99577
2025-05-22 12:22:00.522,89498,17457,17816,76649,99616
2025-05-22 12:22:00.534,89507,17469,17823,76683,99634
2025-05-22 12:22:00.542,89526,17486,17834,76699,99655
2025-05-22 12:22:00.555,89535,17509,17838,76703,99668
2025-05-22 12:22:00.575,89549,17512,17845,76738,99683
2025-05-22 12:22:00.577,89552,17531,17870,76727,99704
2025-05-22 12:22:00.583,89553,17540,17873,76754,99704
2025-05-22 12:22:00.595,89569,17555,17889,76763,99744
2025-05-22 12:22:00.598,89569,17555,17889,76763,99744
2025-05-22 12:22:00.603,89595,17572,17891,76779,99746
2025-05-22 12:22:00.615,89620,17581,17894,76788,99743
2025-05-22 12:22:00.623,89604,17565,17900,76784,99732
2025-05-22 12:22:00.645,89572,17545,17874,76749,99683
2025-05-22 12:22:00.647,89574,17545,17860,76750,99685
2025-05-22 12:22:00.654,89553,17530,17851,76743,99678
2025-05-22 12:22:00.663,89533,17521,17830,76744,99667
2025-05-22 12:22:00.675,89526,17515,17820,76747,99668
2025-05-22 12:22:00.683,89523,17511,17805,76752,99654
2025-05-22 12:22:00.720,89541,17507,17785,76764,99688
2025-05-22 12:22:00.722,89536,17500,17768,76768,99679
2025-05-22 12:22:00.724,89549,17489,17744,76768,99665
2025-05-22 12:22:00.726,89551,17492,17721,76773,99672
2025-05-22 12:22:00.735,89575,17479,17721,76762,99673
2025-05-22 12:22:00.746,89596,17470,17706,76751,99674
2025-05-22 12:22:00.755,89613,17476,17690,76764,99664
2025-05-22 12:22:00.767,89635,17480,17690,76776,99687
2025-05-22 12:22:00.793,89654,17473,17689,76796,99693
2025-05-22 12:22:00.795,89675,17475,17681,76813,99710
2025-05-22 12:22:00.797,89689,17493,17683,76830,99753
2025-05-22 12:22:00.808,89704,17495,17698,76850,99766
2025-05-22 12:22:00.816,89700,17496,17695,76852,99768
2025-05-22 12:22:00.826,89693,17517,17699,76855,99780
2025-05-22 12:22:00.834,89715,17504,17713,76869,99782
2025-05-22 12:22:00.863,89711,17516,17716,76868,99786
2025-05-22 12:22:00.865,89714,17515,17721,76869,99787
2025-05-22 12:22:00.867,89723,17519,17728,76866,99782
2025-05-22 12:22:00.875,89724,17519,17722,76850,99765
2025-05-22 12:22:00.887,89713,17528,17737,76842,99755
2025-05-22 12:22:00.895,89716,17527,17740,76817,99721
2025-05-22 12:22:00.906,89729,17545,17739,76826,99738
2025-05-22 12:22:00.930,89722,17543,17757,76825,99730
2025-05-22 12:22:00.932,89717,17556,17769,76837,99748
2025-05-22 12:22:00.934,89727,17555,17768,76825,99761
2025-05-22 12:22:00.947,89734,17558,17772,76826,99760
2025-05-22 12:22:00.955,89733,17561,17769,76823,99746
2025-05-22 12:22:00.967,89743,17556,17765,76836,99743
2025-05-22 12:22:00.975,89735,17556,17758,76808,99719
2025-05-22 12:22:00.999,89742,17560,17750,76809,99729
2025-05-22 12:22:01.000,89735,17549,17759,76811,99724
2025-05-22 12:22:01.007,89721,17556,17760,76812,99719
2025-05-22 12:22:01.014,89718,17548,17759,76807,99704
2025-05-22 12:22:01.027,89721,17556,17744,76791,99704
2025-05-22 12:22:01.035,89715,17555,17757,76806,99702
2025-05-22 12:22:01.046,89736,17569,17756,76803,99717
2025-05-22 12:22:01.067,89727,17559,17761,76803,99710
2025-05-22 12:22:01.068,89749,17564,17758,76794,99700
2025-05-22 12:22:01.074,89742,17565,17757,76783,99702
2025-05-22 12:22:01.087,89745,17579,17755,76771,99686
2025-05-22 12:22:01.094,89737,17584,17767,76776,99700
2025-05-22 12:22:01.106,89751,17589,17780,76792,99706
2025-05-22 12:22:01.115,89759,17591,17771,76807,99715
2025-05-22 12:22:01.138,89752,17600,17790,76816,99740
2025-05-22 12:22:01.140,89764,17602,17796,76826,99745
2025-05-22 12:22:01.146,89762,17608,17800,76826,99749
2025-05-22 12:22:01.159,89766,17618,17808,76823,99752
2025-05-22 12:22:01.167,89772,17624,17820,76837,99750
2025-05-22 12:22:01.179,89761,17631,17830,76834,99752
2025-05-22 12:22:01.207,89772,17640,17827,76827,99762
2025-05-22 12:22:01.209,89757,17646,17849,76823,99749
2025-05-22 12:22:01.211,89769,17653,17847,76812,99755
2025-05-22 12:22:01.219,89766,17660,17850,76815,99753
2025-05-22 12:22:01.226,89766,17672,17864,76818,99755
2025-05-22 12:22:01.239,89762,17673,17871,76808,99734
2025-05-22 12:22:01.246,89775,17681,17876,76824,99760
2025-05-22 12:22:01.276,89758,17697,17885,76828,99776
2025-05-22 12:22:01.277,89771,17694,17890,76832,99783
2025-05-22 12:22:01.279,89765,17701,17907,76840,99777
2025-05-22 12:22:01.287,89757,17712,17904,76840,99768
2025-05-22 12:22:01.299,89755,17705,17924,76834,99777
2025-05-22 12:22:01.307,89758,17714,17922,76831,99778
2025-05-22 12:22:01.318,89766,17725,17923,76829,99774
2025-05-22 12:22:01.344,89780,17736,17933,76838,99786
2025-05-22 12:22:01.346,89768,17741,17945,76856,99790
2025-05-22 12:22:01.348,89763,17747,17947,76843,99787
2025-05-22 12:22:01.358,89751,17758,17969,76854,99795
2025-05-22 12:22:01.366,89754,17766,17970,76847,99793
2025-05-22 12:22:01.379,89765,17765,17978,76843,99796
2025-05-22 12:22:01.387,89758,17775,17989,76853,99802
2025-05-22 12:22:01.416,89765,17789,17994,76856,99813
2025-05-22 12:22:01.419,89759,17792,18005,76859,99804
2025-05-22 12:22:01.420,89760,17794,18008,76855,99797
2025-05-22 12:22:01.427,89762,17799,17999,76846,99802
2025-05-22 12:22:01.439,89759,17802,18011,76839,99785
2025-05-22 12:22:01.447,89774,17808,18015,76838,99799
2025-05-22 12:22:01.458,89777,17810,18025,76846,99796
2025-05-22 12:22:01.487,89751,17824,18027,76852,99810
2025-05-22 12:22:01.488,89771,17835,18040,76846,99812
2025-05-22 12:22:01.490,89763,17846,18052,76861,99821
2025-05-22 12:22:01.499,89758,17851,18069,76872,99867
2025-05-22 12:22:01.507,89773,17863,18068,76870,99841
2025-05-22 12:22:01.518,89775,17869,18075,76870,99845
2025-05-22 12:22:01.526,89784,17873,18083,76886,99847
2025-05-22 12:22:01.554,89790,17880,18084,76879,99841
2025-05-22 12:22:01.556,89805,17893,18095,76879,99859
2025-05-22 12:22:01.558,89799,17902,18101,76894,99861
2025-05-22 12:22:01.570,89809,17900,18116,76869,99832
2025-05-22 12:22:01.579,89811,17903,18116,76850,99830
2025-05-22 12:22:01.590,89791,17913,18117,76853,99812
2025-05-22 12:22:01.598,89766,17905,18123,76845,99796
2025-05-22 12:22:01.623,89739,17907,18130,76836,99799
2025-05-22 12:22:01.624,89714,17899,18125,76828,99789
2025-05-22 12:22:01.631,89705,17896,18117,76838,99809
2025-05-22 12:22:01.639,89681,17894,18102,76836,99801
2025-05-22 12:22:01.650,89655,17867,18090,76817,99794
2025-05-22 12:22:01.658,89628,17854,18062,76809,99776
2025-05-22 12:22:01.670,89617,17839,18043,76794,99747
2025-05-22 12:22:01.691,89610,17826,18014,76788,99737
2025-05-22 12:22:01.693,89610,17809,17994,76775,99715
2025-05-22 12:22:01.699,89590,17793,17971,76774,99691
2025-05-22 12:22:01.711,89608,17771,17948,76755,99677
2025-05-22 12:22:01.719,89587,17773,17934,76744,99670
2025-05-22 12:22:01.731,89610,17769,17913,76747,99679
2025-05-22 12:22:01.739,89623,17763,17909,76749,99693
2025-05-22 12:22:01.758,89635,17758,17908,76770,99706
2025-05-22 12:22:01.760,89651,17762,17900,76794,99737
2025-05-22 12:22:01.771,89663,17768,17898,76809,99754
2025-05-22 12:22:01.778,89672,17765,17896,76815,99760
2025-05-22 12:22:01.790,89665,17777,17897,76819,99764
2025-05-22 12:22:01.798,89660,17777,17903,76817,99767
2025-05-22 12:22:01.825,89645,17769,17901,76815,99763
2025-05-22 12:22:01.827,89647,17783,17898,76819,99783
2025-05-22 12:22:01.831,89651,17783,17914,76818,99774
2025-05-22 12:22:01.839,89639,17782,17930,76811,99774
2025-05-22 12:22:01.851,89638,17787,17924,76821,99796
2025-05-22 12:22:01.859,89639,17794,17929,76823,99794
2025-05-22 12:22:01.871,89652,17803,17943,76854,99816
2025-05-22 12:22:01.892,89640,17812,17952,76847,99816
2025-05-22 12:22:01.893,89630,17822,17965,76850,99833
2025-05-22 12:22:01.899,89607,17822,17980,76858,99844
2025-05-22 12:22:01.911,89603,17824,17982,76845,99837
2025-05-22 12:22:01.918,89601,17823,17983,76827,99823
2025-05-22 12:22:01.931,89599,17808,17981,76811,99801
2025-05-22 12:22:01.938,89577,17807,17981,76790,99785
2025-05-22 12:22:01.959,89572,17808,17977,76777,99774
2025-05-22 12:22:01.961,89566,17801,17978,76764,99742
2025-05-22 12:22:01.971,89560,17805,17978,76763,99763
2025-05-22 12:22:01.979,89557,17793,17977,76777,99771
2025-05-22 12:22:01.990,89555,17807,17978,76786,99776
2025-05-22 12:22:02.003,89553,17805,17978,76778,99770
2025-05-22 12:22:02.027,89542,17813,17976,76783,99778
2025-05-22 12:22:02.029,89516,17795,17979,76771,99769
2025-05-22 12:22:02.030,89503,17796,17971,76738,99730
2025-05-22 12:22:02.042,89492,17801,17977,76741,99733
2025-05-22 12:22:02.050,89488,17800,17974,76741,99749
2025-05-22 12:22:02.062,89468,17803,17979,76752,99755
2025-05-22 12:22:02.070,89464,17807,17981,76746,99752
2025-05-22 12:22:02.094,89466,17814,18000,76760,99762
2025-05-22 12:22:02.096,89449,17823,17998,76751,99770
2025-05-22 12:22:02.103,89453,17813,18001,76736,99755
2025-05-22 12:22:02.110,89438,17823,18001,76749,99758
2025-05-22 12:22:02.122,89445,17827,18018,76725,99760
2025-05-22 12:22:02.130,89432,17824,18023,76721,99754
2025-05-22 12:22:02.143,89417,17831,18018,76706,99739
2025-05-22 12:22:02.164,89409,17831,18026,76709,99746
2025-05-22 12:22:02.166,89401,17841,18034,76690,99753
2025-05-22 12:22:02.170,89415,17838,18036,76693,99740
2025-05-22 12:22:02.182,89402,17849,18044,76700,99746
2025-05-22 12:22:02.190,89418,17856,18049,76688,99747
2025-05-22 12:22:02.203,89423,17870,18058,76700,99764
2025-05-22 12:22:02.206,89423,17870,18058,76700,99764
2025-05-22 12:22:02.211,89416,17879,18071,76701,99782
2025-05-22 12:22:02.232,89441,17893,18070,76732,99814
2025-05-22 12:22:02.233,89419,17890,18091,76730,99805
2025-05-22 12:22:02.243,89414,17902,18090,76717,99799
2025-05-22 12:22:02.251,89400,17897,18104,76714,99791
2025-05-22 12:22:02.262,89397,17908,18103,76699,99773
2025-05-22 12:22:02.271,89388,17899,18114,76694,99778
2025-05-22 12:22:02.301,89378,17903,18110,76690,99775
2025-05-22 12:22:02.302,89380,17908,18124,76687,99783
2025-05-22 12:22:02.304,89394,17925,18125,76695,99790
2025-05-22 12:22:02.311,89403,17928,18129,76698,99800
2025-05-22 12:22:02.323,89405,17933,18142,76713,99808
2025-05-22 12:22:02.330,89409,17928,18138,76710,99814
2025-05-22 12:22:02.343,89397,17935,18155,76701,99794
2025-05-22 12:22:02.368,89383,17942,18160,76682,99794
2025-05-22 12:22:02.370,89381,17933,18160,76677,99784
2025-05-22 12:22:02.371,89377,17951,18168,76668,99765
2025-05-22 12:22:02.383,89369,17942,18164,76650,99757
2025-05-22 12:22:02.394,89371,17951,18184,76649,99757
2025-05-22 12:22:02.403,89378,17959,18183,76635,99734
2025-05-22 12:22:02.415,89369,17956,18193,76621,99750
2025-05-22 12:22:02.437,89366,17967,18192,76628,99721
2025-05-22 12:22:02.439,89368,17964,18197,76636,99739
2025-05-22 12:22:02.442,89366,17962,18206,76615,99720
2025-05-22 12:22:02.454,89366,17973,18201,76593,99702
2025-05-22 12:22:02.462,89372,17970,18212,76589,99705
2025-05-22 12:22:02.475,89373,17964,18212,76582,99691
2025-05-22 12:22:02.483,89371,17971,18211,76559,99664
2025-05-22 12:22:02.511,89376,17972,18217,76545,99648
2025-05-22 12:22:02.513,89384,17982,18225,76534,99647
2025-05-22 12:22:02.515,89406,17993,18228,76532,99636
2025-05-22 12:22:02.522,89436,18002,18222,76551,99661
2025-05-22 12:22:02.534,89440,18012,18237,76558,99683
2025-05-22 12:22:02.543,89448,18015,18255,76575,99690
2025-05-22 12:22:02.555,89434,18017,18259,76570,99686
2025-05-22 12:22:02.579,89445,18024,18257,76581,99691
2025-05-22 12:22:02.580,89453,18032,18264,76579,99712
2025-05-22 12:22:02.583,89459,18040,18279,76600,99701
2025-05-22 12:22:02.595,89472,18037,18272,76611,99747
2025-05-22 12:22:02.603,89470,18037,18270,76623,99728
2025-05-22 12:22:02.615,89467,18036,18264,76624,99721
2025-05-22 12:22:02.622,89484,18013,18242,76632,99744
2025-05-22 12:22:02.647,89550,17982,18207,76643,99722
2025-05-22 12:22:02.648,89626,17937,18156,76641,99686
2025-05-22 12:22:02.654,89747,17894,18115,76616,99628
2025-05-22 12:22:02.663,89849,17850,18057,76565,99534
2025-05-22 12:22:02.675,89918,17815,18023,76522,99458
2025-05-22 12:22:02.682,89959,17770,17982,76446,99333
2025-05-22 12:22:02.695,89988,17742,17937,76379,99248
2025-05-22 12:22:02.717,90001,17706,17916,76342,99169
2025-05-22 12:22:02.719,90004,17673,17891,76320,99132
2025-05-22 12:22:02.723,90019,17645,17879,76317,99094
2025-05-22 12:22:02.734,90043,17646,17855,76315,99079
2025-05-22 12:22:02.743,90096,17635,17844,76326,99058
2025-05-22 12:22:02.755,90139,17638,17832,76344,99089
2025-05-22 12:22:02.763,90199,17643,17837,76375,99119
2025-05-22 12:22:02.788,90243,17654,17848,76413,99147
2025-05-22 12:22:02.790,90296,17677,17849,76437,99206
2025-05-22 12:22:02.795,90342,17683,17871,76484,99261
2025-05-22 12:22:02.807,90399,17711,17882,76523,99322
2025-05-22 12:22:02.815,90429,17725,17899,76573,99375
2025-05-22 12:22:02.826,90462,17737,17919,76597,99430
2025-05-22 12:22:02.834,90480,17761,17946,76635,99457
2025-05-22 12:22:02.858,90495,17774,17955,76657,99510
2025-05-22 12:22:02.860,90518,17783,17968,76688,99548
2025-05-22 12:22:02.866,90558,17798,17976,76710,99568
2025-05-22 12:22:02.874,90589,17822,17998,76767,99624
2025-05-22 12:22:02.886,90611,17838,18019,76811,99689
2025-05-22 12:22:02.894,90615,17854,18027,76852,99732
2025-05-22 12:22:02.907,90608,17869,18043,76872,99767
2025-05-22 12:22:02.928,90583,17891,18070,76890,99798
2025-05-22 12:22:02.930,90561,17897,18082,76918,99832
2025-05-22 12:22:02.935,90532,17908,18103,76925,99856
2025-05-22 12:22:02.946,90502,17914,18105,76939,99868
2025-05-22 12:22:02.954,90505,17922,18107,76949,99883
2025-05-22 12:22:02.967,90504,17929,18110,76979,99914
2025-05-22 12:22:02.975,90507,17933,18114,76985,99931
2025-05-22 12:22:02.996,90506,17943,18112,77008,99960
2025-05-22 12:22:02.997,90541,17942,18108,77035,99978
2025-05-22 12:22:03.006,90547,17967,18111,77073,100025
2025-05-22 12:22:03.015,90538,17961,18119,77140,100084
2025-05-22 12:22:03.027,90547,17963,18119,77163,100120
2025-05-22 12:22:03.035,90555,17962,18119,77173,100102
2025-05-22 12:22:03.064,90558,17954,18110,77186,100097
2025-05-22 12:22:03.066,90534,17939,18106,77144,100061
2025-05-22 12:22:03.067,90520,17925,18086,77059,99988
2025-05-22 12:22:03.074,90496,17906,18077,76966,99877
2025-05-22 12:22:03.086,90480,17886,18060,76866,99748
2025-05-22 12:22:03.095,90461,17875,18057,76783,99673
2025-05-22 12:22:03.107,90459,17892,18062,76760,99645
2025-05-22 12:22:03.132,90445,17880,18068,76775,99659
2025-05-22 12:22:03.134,90434,17883,18078,76777,99677
2025-05-22 12:22:03.139,90431,17887,18097,76793,99693
2025-05-22 12:22:03.147,90405,17886,18097,76773,99658
2025-05-22 12:22:03.159,90413,17882,18111,76745,99645
2025-05-22 12:22:03.166,90441,17879,18105,76722,99601
2025-05-22 12:22:03.179,90467,17878,18097,76687,99587
2025-05-22 12:22:03.201,90506,17883,18105,76671,99546
2025-05-22 12:22:03.202,90540,17891,18112,76647,99532
2025-05-22 12:22:03.206,90569,17898,18133,76636,99535
2025-05-22 12:22:03.219,90560,17914,18144,76621,99540
2025-05-22 12:22:03.226,90565,17931,18154,76639,99546
2025-05-22 12:22:03.239,90565,17927,18165,76647,99554
2025-05-22 12:22:03.246,90568,17954,18175,76646,99573
2025-05-22 12:22:03.269,90561,17956,18183,76688,99608
2025-05-22 12:22:03.271,90569,17964,18194,76707,99635
2025-05-22 12:22:03.279,90587,17968,18190,76723,99656
2025-05-22 12:22:03.286,90603,17980,18203,76751,99690
2025-05-22 12:22:03.299,90616,17982,18215,76773,99699
2025-05-22 12:22:03.307,90637,17996,18225,76797,99728
2025-05-22 12:22:03.319,90639,18006,18243,76791,99740
2025-05-22 12:22:03.341,90631,18015,18245,76801,99746
2025-05-22 12:22:03.343,90633,18025,18257,76800,99768
2025-05-22 12:22:03.347,90625,18026,18266,76809,99760
2025-05-22 12:22:03.358,90623,18042,18274,76856,99788
2025-05-22 12:22:03.366,90632,18057,18284,76882,99821
2025-05-22 12:22:03.378,90616,18050,18296,76902,99847
2025-05-22 12:22:03.387,90592,18056,18312,76904,99851
2025-05-22 12:22:03.412,90568,18054,18303,76916,99846
2025-05-22 12:22:03.414,90564,18065,18296,76924,99843
2025-05-22 12:22:03.419,90532,18076,18305,76908,99838
2025-05-22 12:22:03.427,90537,18078,18320,76908,99850
2025-05-22 12:22:03.438,90518,18075,18324,76907,99834
2025-05-22 12:22:03.447,90502,18082,18336,76887,99823
2025-05-22 12:22:03.458,90495,18084,18340,76855,99785
2025-05-22 12:22:03.480,90479,18079,18350,76793,99763
2025-05-22 12:22:03.482,90485,18076,18342,76735,99680
2025-05-22 12:22:03.487,90484,18065,18340,76672,99629
2025-05-22 12:22:03.499,90506,18066,18338,76600,99553
2025-05-22 12:22:03.507,90530,18075,18347,76581,99524
2025-05-22 12:22:03.519,90532,18082,18350,76554,99503
2025-05-22 12:22:03.526,90551,18077,18372,76522,99483
2025-05-22 12:22:03.548,90559,18091,18376,76499,99457
2025-05-22 12:22:03.550,90561,18108,18379,76505,99479
2025-05-22 12:22:03.559,90561,18122,18394,76512,99478
2025-05-22 12:22:03.570,90565,18130,18403,76525,99521
2025-05-22 12:22:03.579,90557,18149,18423,76564,99557
2025-05-22 12:22:03.590,90550,18155,18428,76603,99597
2025-05-22 12:22:03.617,90536,18177,18440,76633,99621
2025-05-22 12:22:03.619,90515,18186,18458,76652,99646
2025-05-22 12:22:03.621,90515,18186,18458,76652,99646
2025-05-22 12:22:03.622,90481,18207,18473,76725,99719
2025-05-22 12:22:03.630,90458,18225,18484,76739,99764
2025-05-22 12:22:03.639,90428,18223,18503,76775,99796
2025-05-22 12:22:03.651,90364,18226,18504,76787,99798
2025-05-22 12:22:03.659,90330,18233,18509,76778,99801
2025-05-22 12:22:03.686,90272,18216,18509,76754,99752
2025-05-22 12:22:03.687,90247,18201,18494,76715,99728
2025-05-22 12:22:03.690,90190,18177,18477,76677,99673
2025-05-22 12:22:03.698,90173,18162,18453,76622,99624
2025-05-22 12:22:03.710,90155,18139,18428,76568,99548
2025-05-22 12:22:03.719,90132,18126,18413,76504,99480
2025-05-22 12:22:03.730,90111,18101,18382,76446,99433
2025-05-22 12:22:03.753,90115,18065,18356,76385,99382
2025-05-22 12:22:03.754,90086,18062,18327,76340,99342
2025-05-22 12:22:03.759,90080,18042,18304,76279,99269
2025-05-22 12:22:03.772,90068,18027,18285,76245,99234
2025-05-22 12:22:03.778,90066,17995,18268,76213,99199
2025-05-22 12:22:03.790,90034,18000,18238,76168,99158
2025-05-22 12:22:03.798,90026,17962,18217,76155,99132
2025-05-22 12:22:03.822,90003,17939,18213,76136,99109
2025-05-22 12:22:03.823,89987,17947,18187,76136,99100
2025-05-22 12:22:03.830,89984,17931,18193,76151,99109
2025-05-22 12:22:03.838,89965,17923,18190,76145,99120
2025-05-22 12:22:03.850,89953,17917,18173,76146,99117
2025-05-22 12:22:03.858,89950,17919,18186,76132,99115
2025-05-22 12:22:03.871,89924,17910,18171,76124,99106
2025-05-22 12:22:03.894,89931,17896,18157,76089,99065
2025-05-22 12:22:03.896,89901,17896,18148,76055,99038
2025-05-22 12:22:03.902,89915,17884,18146,76016,99000
2025-05-22 12:22:03.911,89897,17867,18134,75982,98940
2025-05-22 12:22:03.919,89901,17864,18113,75924,98906
2025-05-22 12:22:03.930,89890,17832,18099,75885,98845
2025-05-22 12:22:03.942,89905,17843,18090,75849,98806
2025-05-22 12:22:03.963,89890,17815,18080,75823,98772
2025-05-22 12:22:03.965,89896,17817,18078,75778,98750
2025-05-22 12:22:03.970,89884,17796,18071,75767,98715
2025-05-22 12:22:03.982,89892,17786,18067,75757,98698
2025-05-22 12:22:03.990,89889,17767,18043,75748,98697
2025-05-22 12:22:04.002,89898,17759,18044,75759,98684
2025-05-22 12:22:04.010,89902,17753,18027,75782,98705
2025-05-22 12:22:04.031,89910,17751,18024,75817,98725
2025-05-22 12:22:04.032,89921,17749,18020,75865,98780
2025-05-22 12:22:04.042,89926,17744,18029,75906,98814
2025-05-22 12:22:04.051,89928,17745,18023,75953,98845
2025-05-22 12:22:04.063,89942,17745,18025,76034,98920
2025-05-22 12:22:04.070,89950,17744,18011,76105,98967
2025-05-22 12:22:04.099,89957,17748,18025,76187,99062
2025-05-22 12:22:04.100,89986,17748,18025,76269,99147
2025-05-22 12:22:04.103,89981,17761,18025,76387,99249
2025-05-22 12:22:04.110,89980,17767,18056,76493,99342
2025-05-22 12:22:04.123,89953,17772,18057,76579,99424
2025-05-22 12:22:04.131,89922,17784,18090,76689,99533
2025-05-22 12:22:04.142,89890,17814,18094,76798,99650
2025-05-22 12:22:04.166,89880,17820,18136,76944,99786
2025-05-22 12:22:04.168,89855,17837,18161,77091,99945
2025-05-22 12:22:04.170,89849,17869,18186,77283,100113
2025-05-22 12:22:04.182,89864,17906,18238,77499,100315
2025-05-22 12:22:04.190,89876,17937,18287,77703,100492
2025-05-22 12:22:04.202,89864,17954,18346,77845,100636
2025-05-22 12:22:04.211,89881,17978,18380,77983,100766
2025-05-22 12:22:04.236,89913,17999,18400,78111,100904
2025-05-22 12:22:04.238,89931,18034,18450,78276,101065
2025-05-22 12:22:04.242,89924,18048,18489,78445,101239
2025-05-22 12:22:04.251,89877,18031,18518,78509,101289
2025-05-22 12:22:04.262,89844,18015,18502,78512,101288
2025-05-22 12:22:04.274,89859,18001,18514,78553,101299
2025-05-22 12:22:04.282,89818,17961,18481,78528,101239
2025-05-22 12:22:04.305,89776,17910,18461,78420,101095
2025-05-22 12:22:04.307,89746,17854,18420,78307,100933
2025-05-22 12:22:04.315,89663,17767,18384,78148,100732
2025-05-22 12:22:04.322,89595,17724,18317,77992,100528
2025-05-22 12:22:04.335,89556,17691,18275,77967,100454
2025-05-22 12:22:04.342,89523,17663,18265,78038,100459
2025-05-22 12:22:04.374,89468,17635,18243,78104,100467
2025-05-22 12:22:04.376,89407,17611,18226,78124,100436
2025-05-22 12:22:04.378,89321,17571,18218,78199,100464
2025-05-22 12:22:04.383,89214,17530,18182,78214,100423
2025-05-22 12:22:04.394,89128,17482,18136,78205,100343
2025-05-22 12:22:04.402,89036,17436,18085,78225,100280
2025-05-22 12:22:04.415,88905,17389,18043,78254,100235
2025-05-22 12:22:04.422,88795,17351,18003,78295,100182
2025-05-22 12:22:04.443,88705,17335,17987,78411,100207
2025-05-22 12:22:04.444,88628,17330,17966,78534,100279
2025-05-22 12:22:04.455,88635,17391,17956,78722,100380
2025-05-22 12:22:04.462,88939,17603,18014,79054,100717
2025-05-22 12:22:04.474,89045,17605,18202,79539,101289
2025-05-22 12:22:04.482,89186,17617,18174,79279,101095
2025-05-22 12:22:04.513,89272,17642,18151,79181,101058
2025-05-22 12:22:04.514,89302,17665,18162,79132,101046
2025-05-22 12:22:04.516,89305,17672,18180,79166,101065
2025-05-22 12:22:04.523,89311,17679,18173,79192,101106
2025-05-22 12:22:04.535,89364,17705,18183,79237,101139
2025-05-22 12:22:04.547,89431,17744,18190,79312,101216
2025-05-22 12:22:04.555,89510,17777,18202,79388,101311
2025-05-22 12:22:04.581,89603,17800,18218,79469,101420
2025-05-22 12:22:04.583,89673,17816,18229,79510,101471
2025-05-22 12:22:04.586,89698,17830,18233,79535,101481
2025-05-22 12:22:04.595,89684,17823,18239,79546,101494
2025-05-22 12:22:04.607,89681,17847,18240,79521,101457
2025-05-22 12:22:04.614,89689,17837,18237,79540,101475
2025-05-22 12:22:04.626,89724,17866,18235,79564,101486
2025-05-22 12:22:04.649,89753,17872,18239,79597,101529
2025-05-22 12:22:04.651,89784,17883,18244,79640,101563
2025-05-22 12:22:04.654,89803,17905,18246,79653,101578
2025-05-22 12:22:04.666,89834,17912,18255,79698,101621
2025-05-22 12:22:04.674,89839,17918,18248,79715,101662
2025-05-22 12:22:04.686,89880,17919,18228,79779,101696
2025-05-22 12:22:04.694,89933,17925,18220,79829,101759
2025-05-22 12:22:04.717,89950,17921,18205,79866,101783
2025-05-22 12:22:04.719,89952,17916,18203,79891,101765
2025-05-22 12:22:04.727,89978,17929,18181,79893,101787
2025-05-22 12:22:04.734,90033,17941,18171,79944,101841
2025-05-22 12:22:04.746,90096,17952,18178,80052,101953
2025-05-22 12:22:04.754,90167,17951,18161,80113,101996
2025-05-22 12:22:04.766,90239,17959,18164,80196,102093
2025-05-22 12:22:04.787,90318,17979,18153,80294,102186
2025-05-22 12:22:04.788,90382,17988,18150,80409,102277
2025-05-22 12:22:04.799,90404,17982,18159,80468,102333
2025-05-22 12:22:04.806,90383,17976,18153,80428,102269
2025-05-22 12:22:04.819,90343,17940,18122,80377,102186
2025-05-22 12:22:04.821,90343,17940,18122,80377,102186
2025-05-22 12:22:04.826,90273,17907,18073,80211,101990
2025-05-22 12:22:04.854,90275,17905,18058,80152,101957
2025-05-22 12:22:04.855,90299,17910,18046,80181,101954
2025-05-22 12:22:04.858,90332,17927,18056,80223,102006
2025-05-22 12:22:04.866,90347,17924,18062,80274,102050
2025-05-22 12:22:04.878,90303,17903,18058,80289,102041
2025-05-22 12:22:04.887,90245,17910,18054,80288,101995
2025-05-22 12:22:04.899,90176,17924,18057,80343,102032
2025-05-22 12:22:04.923,90107,17928,18081,80420,102075
2025-05-22 12:22:04.925,90018,17934,18107,80517,102164
2025-05-22 12:22:04.926,89921,17929,18098,80591,102183
2025-05-22 12:22:04.938,89835,17925,18104,80650,102223
2025-05-22 12:22:04.946,89776,17898,18101,80657,102178
2025-05-22 12:22:04.959,89704,17872,18071,80594,102086
2025-05-22 12:22:04.966,89601,17846,18048,80523,101951
2025-05-22 12:22:04.991,89499,17807,18018,80433,101828
2025-05-22 12:22:04.993,89401,17788,17983,80354,101699
2025-05-22 12:22:04.998,89288,17751,17947,80284,101576
2025-05-22 12:22:05.006,89130,17715,17920,80216,101458
2025-05-22 12:22:05.019,88999,17691,17889,80140,101355
2025-05-22 12:22:05.027,88899,17665,17861,80080,101253
2025-05-22 12:22:05.038,88806,17645,17836,80066,101203
2025-05-22 12:22:05.060,88709,17618,17803,80045,101134
2025-05-22 12:22:05.062,88614,17579,17760,79960,101012
2025-05-22 12:22:05.066,88555,17549,17706,79871,100892
2025-05-22 12:22:05.079,88489,17491,17653,79746,100746
2025-05-22 12:22:05.087,88398,17442,17600,79597,100563
2025-05-22 12:22:05.098,88329,17418,17551,79461,100373
2025-05-22 12:22:05.128,88259,17394,17520,79396,100309
2025-05-22 12:22:05.129,88191,17363,17476,79320,100175
2025-05-22 12:22:05.131,88096,17330,17435,79239,100065
2025-05-22 12:22:05.138,88005,17314,17397,79170,99948
2025-05-22 12:22:05.150,87904,17296,17375,79098,99850
2025-05-22 12:22:05.159,87816,17288,17355,79047,99775
2025-05-22 12:22:05.170,87752,17283,17337,79027,99734
2025-05-22 12:22:05.197,87690,17263,17331,79005,99706
2025-05-22 12:22:05.198,87628,17239,17304,78929,99593
2025-05-22 12:22:05.200,87582,17213,17265,78852,99502
2025-05-22 12:22:05.210,87545,17178,17223,78812,99443
2025-05-22 12:22:05.219,87469,17149,17183,78746,99325
2025-05-22 12:22:05.231,87403,17124,17153,78646,99222
2025-05-22 12:22:05.238,87332,17108,17128,78564,99113
2025-05-22 12:22:05.266,87283,17094,17105,78488,99030
2025-05-22 12:22:05.268,87229,17098,17085,78443,98984
2025-05-22 12:22:05.269,87193,17082,17077,78423,98979
2025-05-22 12:22:05.279,87176,17077,17059,78378,98910
2025-05-22 12:22:05.290,87165,17061,17030,78320,98871
2025-05-22 12:22:05.299,87147,17041,17004,78280,98820
2025-05-22 12:22:05.310,87134,17016,16979,78233,98748
2025-05-22 12:22:05.335,87109,17023,16957,78212,98714
2025-05-22 12:22:05.337,87105,17005,16946,78173,98668
2025-05-22 12:22:05.338,87126,17011,16929,78165,98672
2025-05-22 12:22:05.350,87133,17010,16919,78139,98637
2025-05-22 12:22:05.359,87153,17009,16924,78146,98652
2025-05-22 12:22:05.370,87168,17002,16924,78154,98641
2025-05-22 12:22:05.379,87184,16986,16895,78128,98609
2025-05-22 12:22:05.404,87197,16971,16863,78148,98594
2025-05-22 12:22:05.405,87208,16946,16829,78122,98567
2025-05-22 12:22:05.410,87225,16929,16786,78102,98496
2025-05-22 12:22:05.419,87266,16922,16757,78065,98467
2025-05-22 12:22:05.430,87286,16912,16746,78071,98465
2025-05-22 12:22:05.438,87312,16906,16734,78101,98461
2025-05-22 12:22:05.450,87321,16887,16719,78133,98468
2025-05-22 12:22:05.472,87339,16888,16699,78128,98438
2025-05-22 12:22:05.473,87391,16866,16677,78141,98414
2025-05-22 12:22:05.478,87419,16858,16656,78185,98439
2025-05-22 12:22:05.490,87444,16851,16635,78218,98457
2025-05-22 12:22:05.502,87490,16851,16631,78253,98484
2025-05-22 12:22:05.511,87550,16859,16622,78285,98534
2025-05-22 12:22:05.541,87632,16835,16591,78338,98538
2025-05-22 12:22:05.543,87677,16784,16558,78372,98526
2025-05-22 12:22:05.544,87678,16721,16494,78321,98394
2025-05-22 12:22:05.550,87586,16676,16420,78281,98267
2025-05-22 12:22:05.562,87489,16626,16362,78199,98128
2025-05-22 12:22:05.570,87356,16561,16293,78089,97963
2025-05-22 12:22:05.582,87232,16486,16233,77973,97771
2025-05-22 12:22:05.608,87102,16400,16145,77814,97513
2025-05-22 12:22:05.610,86960,16328,16035,77655,97289
2025-05-22 12:22:05.612,86843,16285,15950,77533,97114
2025-05-22 12:22:05.622,86770,16262,15891,77427,96968
2025-05-22 12:22:05.631,86765,16271,15876,77350,96929
2025-05-22 12:22:05.642,86836,16309,15880,77349,96978
2025-05-22 12:22:05.650,86972,16347,15899,77409,97116
2025-05-22 12:22:05.677,87096,16369,15936,77474,97253
2025-05-22 12:22:05.679,87205,16439,15959,77461,97305
2025-05-22 12:22:05.682,87306,16481,16017,77296,97294
2025-05-22 12:22:05.690,87457,16514,16042,76988,97223
2025-05-22 12:22:05.702,87623,16521,16061,76760,97164
2025-05-22 12:22:05.711,87746,16525,16056,76665,97136
2025-05-22 12:22:05.722,87838,16523,16040,76596,97112
2025-05-22 12:22:05.746,87860,16512,16022,76440,97000
2025-05-22 12:22:05.748,87840,16500,15991,76190,96817
2025-05-22 12:22:05.750,87823,16513,15969,75891,96619
2025-05-22 12:22:05.763,87836,16536,15956,75647,96461
2025-05-22 12:22:05.770,87853,16562,15939,75448,96378
2025-05-22 12:22:05.782,87901,16605,15952,75348,96366
2025-05-22 12:22:05.790,87924,16643,15952,75278,96402
2025-05-22 12:22:05.823,87904,16672,15961,75219,96405
2025-05-22 12:22:05.825,87905,16719,15953,75194,96441
2025-05-22 12:22:05.826,87913,16756,15952,75206,96494
2025-05-22 12:22:05.830,87902,16809,15955,75249,96604
2025-05-22 12:22:05.842,87875,16852,15963,75341,96740
2025-05-22 12:22:05.850,87853,16911,15967,75470,96914
2025-05-22 12:22:05.863,87851,16984,15997,75669,97150
2025-05-22 12:22:05.870,87853,17052,16030,75922,97454
2025-05-22 12:22:05.891,87820,17103,16076,76211,97767
2025-05-22 12:22:05.893,87802,17138,16108,76462,98017
2025-05-22 12:22:05.903,87775,17164,16135,76617,98188
2025-05-22 12:22:05.911,87752,17175,16133,76707,98278
2025-05-22 12:22:05.922,87710,17172,16135,76734,98286
2025-05-22 12:22:05.934,87698,17181,16114,76722,98293
2025-05-22 12:22:05.961,87687,17186,16101,76704,98275
2025-05-22 12:22:05.963,87684,17212,16099,76723,98314
2025-05-22 12:22:05.964,87703,17241,16110,76801,98407
2025-05-22 12:22:05.974,87729,17259,16123,76931,98546
2025-05-22 12:22:05.982,87767,17285,16142,77088,98713
2025-05-22 12:22:05.994,87771,17325,16150,77250,98849
2025-05-22 12:22:06.003,87803,17355,16167,77417,99034
2025-05-22 12:22:06.029,87861,17395,16169,77566,99197
2025-05-22 12:22:06.031,87894,17422,16197,77683,99315
2025-05-22 12:22:06.034,87932,17451,16227,77752,99399
2025-05-22 12:22:06.043,87996,17477,16241,77819,99469
2025-05-22 12:22:06.054,88049,17516,16278,77894,99553
2025-05-22 12:22:06.062,88107,17542,16306,77996,99667
2025-05-22 12:22:06.075,88133,17560,16338,78108,99774
2025-05-22 12:22:06.098,88163,17564,16354,78165,99824
2025-05-22 12:22:06.100,88164,17545,16358,78175,99831
2025-05-22 12:22:06.102,88148,17551,16344,78130,99774
2025-05-22 12:22:06.114,88142,17544,16331,78114,99766
2025-05-22 12:22:06.122,88130,17553,16308,78113,99767
2025-05-22 12:22:06.134,88138,17562,16314,78138,99806
2025-05-22 12:22:06.143,88152,17580,16327,78191,99867
2025-05-22 12:22:06.167,88156,17601,16345,78287,99980
2025-05-22 12:22:06.169,88152,17621,16361,78394,100093
2025-05-22 12:22:06.175,88143,17634,16381,78506,100188
2025-05-22 12:22:06.182,88141,17645,16394,78603,100278
2025-05-22 12:22:06.194,88134,17658,16418,78719,100372
2025-05-22 12:22:06.203,88138,17659,16431,78845,100500
2025-05-22 12:22:06.214,88117,17672,16447,79001,100625
2025-05-22 12:22:06.235,88077,17673,16452,79138,100749
2025-05-22 12:22:06.237,88077,17673,16452,79138,100749
2025-05-22 12:22:06.238,87984,17711,16446,79528,101095
2025-05-22 12:22:06.242,87972,17751,16473,79813,101369
2025-05-22 12:22:06.254,87987,17783,16516,80124,101654
2025-05-22 12:22:06.262,88019,17807,16546,80447,101931
2025-05-22 12:22:06.274,88044,17825,16589,80721,102137
2025-05-22 12:22:06.304,88080,17845,16628,80997,102334
2025-05-22 12:22:06.306,88111,17843,16652,81217,102482
2025-05-22 12:22:06.308,88121,17849,16664,81373,102587
2025-05-22 12:22:06.315,88116,17841,16663,81509,102664
2025-05-22 12:22:06.326,88135,17847,16652,81658,102756
2025-05-22 12:22:06.334,88159,17833,16648,81845,102881
2025-05-22 12:22:06.346,88158,17797,16641,81997,102931
2025-05-22 12:22:06.373,88169,17737,16614,82052,102897
2025-05-22 12:22:06.374,88162,17657,16571,81999,102723
2025-05-22 12:22:06.376,88134,17579,16501,81897,102508
2025-05-22 12:22:06.386,88105,17492,16443,81830,102327
2025-05-22 12:22:06.394,88065,17368,16372,81760,102083
2025-05-22 12:22:06.406,88004,17239,16277,81651,101778
2025-05-22 12:22:06.415,88027,17183,16159,81546,101513
2025-05-22 12:22:06.441,87908,17054,16114,81377,101247
2025-05-22 12:22:06.442,87837,16989,16002,81110,100877
2025-05-22 12:22:06.446,87812,16914,15929,80944,100625
2025-05-22 12:22:06.455,87829,16884,15880,80913,100536
2025-05-22 12:22:06.466,87773,16834,15855,80916,100478
2025-05-22 12:22:06.475,87725,16804,15820,80923,100388
2025-05-22 12:22:06.487,87681,16764,15778,80902,100299
2025-05-22 12:22:06.510,87630,16752,15747,80898,100250
2025-05-22 12:22:06.512,87605,16738,15726,80927,100241
2025-05-22 12:22:06.514,87587,16738,15717,80998,100244
2025-05-22 12:22:06.527,87623,16763,15714,81175,100309
2025-05-22 12:22:06.534,87766,16851,15765,81516,100553
2025-05-22 12:22:06.546,87959,16974,15834,81974,100969
2025-05-22 12:22:06.555,88171,17128,15975,82474,101511
2025-05-22 12:22:06.588,88372,17309,16127,83027,102159
2025-05-22 12:22:06.590,88539,17491,16287,83525,102795
2025-05-22 12:22:06.591,88699,17682,16427,83916,103378
2025-05-22 12:22:06.598,88851,17873,16581,84273,103935
2025-05-22 12:22:06.606,88990,18077,16731,84579,104493
2025-05-22 12:22:06.618,89110,18273,16875,84890,105050
2025-05-22 12:22:06.627,89234,18453,17010,85178,105629
2025-05-22 12:22:06.660,89314,18517,17131,85410,106117
2025-05-22 12:22:06.662,89329,18534,17206,85239,106065
2025-05-22 12:22:06.664,89400,18584,17219,85046,106012
2025-05-22 12:22:06.667,89441,18649,17241,84977,106082
2025-05-22 12:22:06.679,89441,18691,17277,84894,106114
2025-05-22 12:22:06.686,89459,18700,17293,84780,106090
2025-05-22 12:22:06.698,89536,18739,17317,84660,106026
2025-05-22 12:22:06.706,89566,18738,17342,84591,106025
2025-05-22 12:22:06.728,89630,18747,17353,84454,105913
2025-05-22 12:22:06.730,89691,18743,17360,84263,105774
2025-05-22 12:22:06.739,89766,18743,17360,84078,105634
2025-05-22 12:22:06.746,89824,18716,17357,83814,105388
2025-05-22 12:22:06.758,89866,18690,17338,83600,105184
2025-05-22 12:22:06.766,89893,18660,17321,83384,104988
2025-05-22 12:22:06.795,89839,18630,17287,83186,104784
2025-05-22 12:22:06.797,89776,18622,17232,83042,104654
2025-05-22 12:22:06.799,89725,18616,17207,82989,104605
2025-05-22 12:22:06.807,89687,18630,17194,83016,104643
2025-05-22 12:22:06.819,89675,18652,17202,83080,104704
2025-05-22 12:22:06.831,89676,18683,17219,83148,104792
2025-05-22 12:22:06.838,89699,18714,17259,83251,104903
2025-05-22 12:22:06.866,89716,18744,17304,83360,105018
2025-05-22 12:22:06.868,89739,18748,17334,83399,105080
2025-05-22 12:22:06.870,89743,18729,17352,83373,105040
2025-05-22 12:22:06.878,89775,18706,17352,83242,104898
2025-05-22 12:22:06.890,89810,18677,17341,83071,104708
2025-05-22 12:22:06.899,89858,18658,17331,82885,104534
2025-05-22 12:22:06.911,89856,18666,17300,82758,104424
2025-05-22 12:22:06.935,89837,18679,17287,82684,104384
2025-05-22 12:22:06.937,89838,18699,17283,82674,104402
2025-05-22 12:22:06.939,89849,18722,17291,82716,104458
2025-05-22 12:22:06.951,89833,18743,17311,82798,104537
2025-05-22 12:22:06.958,89822,18756,17324,82864,104611
2025-05-22 12:22:06.971,89824,18769,17340,82906,104659
2025-05-22 12:22:06.978,89810,18773,17349,82937,104674
2025-05-22 12:22:07.004,89840,18782,17348,82924,104674
2025-05-22 12:22:07.006,89837,18794,17356,82908,104666
2025-05-22 12:22:07.010,89845,18812,17367,82930,104694
2025-05-22 12:22:07.018,89854,18834,17385,82954,104735
2025-05-22 12:22:07.030,89867,18856,17398,82983,104771
2025-05-22 12:22:07.038,89864,18879,17412,83007,104809
2025-05-22 12:22:07.050,89861,18900,17429,83029,104840
2025-05-22 12:22:07.072,89857,18915,17431,83084,104906
2025-05-22 12:22:07.074,89867,18917,17439,83099,104909
2025-05-22 12:22:07.078,89864,18916,17438,83065,104864
2025-05-22 12:22:07.090,89892,18921,17438,83017,104835
2025-05-22 12:22:07.098,89914,18926,17447,82974,104794
2025-05-22 12:22:07.111,89949,18920,17456,82901,104702
2025-05-22 12:22:07.119,89948,18929,17455,82797,104598
2025-05-22 12:22:07.142,89941,18938,17441,82745,104576
2025-05-22 12:22:07.144,89927,18941,17429,82733,104577
2025-05-22 12:22:07.150,89946,18944,17424,82715,104559
2025-05-22 12:22:07.163,90004,18948,17410,82656,104494
2025-05-22 12:22:07.170,90076,18955,17416,82583,104433
2025-05-22 12:22:07.182,90146,18960,17420,82484,104340
2025-05-22 12:22:07.190,90202,18945,17426,82345,104216
2025-05-22 12:22:07.213,90293,18937,17410,82202,104074
2025-05-22 12:22:07.215,90387,18932,17400,82006,103914
2025-05-22 12:22:07.222,90461,18908,17386,81793,103700
2025-05-22 12:22:07.230,90507,18890,17369,81550,103467
2025-05-22 12:22:07.242,90563,18868,17349,81332,103257
2025-05-22 12:22:07.250,90611,18859,17348,81144,103089
2025-05-22 12:22:07.280,90658,18839,17344,80977,102918
2025-05-22 12:22:07.282,90711,18833,17334,80812,102755
2025-05-22 12:22:07.283,90750,18808,17343,80647,102596
2025-05-22 12:22:07.291,90786,18808,17342,80506,102457
2025-05-22 12:22:07.302,90817,18804,17343,80411,102361
2025-05-22 12:22:07.310,90836,18799,17362,80326,102276
2025-05-22 12:22:07.323,90831,18798,17373,80266,102224
2025-05-22 12:22:07.348,90817,18797,17372,80239,102198
2025-05-22 12:22:07.349,90790,18806,17365,80252,102244
2025-05-22 12:22:07.351,90749,18812,17361,80288,102276
2025-05-22 12:22:07.362,90697,18805,17352,80309,102303
2025-05-22 12:22:07.370,90671,18811,17349,80327,102304
2025-05-22 12:22:07.382,90633,18803,17355,80340,102336
2025-05-22 12:22:07.390,90584,18796,17355,80349,102324
2025-05-22 12:22:07.416,90530,18798,17351,80372,102332
2025-05-22 12:22:07.418,90506,18788,17352,80417,102387
2025-05-22 12:22:07.422,90466,18787,17360,80459,102421
2025-05-22 12:22:07.434,90464,18790,17369,80505,102446
2025-05-22 12:22:07.438,90464,18790,17369,80505,102446
2025-05-22 12:22:07.441,90434,18758,17376,80555,102499
2025-05-22 12:22:07.454,90422,18741,17364,80566,102506
2025-05-22 12:22:07.462,90411,18747,17367,80623,102581
2025-05-22 12:22:07.484,90422,18754,17383,80752,102687
2025-05-22 12:22:07.486,90442,18778,17397,80866,102819
2025-05-22 12:22:07.494,90465,18801,17420,81004,102959
2025-05-22 12:22:07.502,90482,18826,17445,81101,103073
2025-05-22 12:22:07.514,90512,18832,17449,81200,103182
2025-05-22 12:22:07.522,90541,18834,17472,81225,103225
2025-05-22 12:22:07.554,90526,18826,17489,81204,103209
2025-05-22 12:22:07.556,90502,18821,17472,81185,103194
2025-05-22 12:22:07.557,90443,18818,17455,81217,103237
2025-05-22 12:22:07.562,90408,18829,17467,81338,103309
2025-05-22 12:22:07.573,90359,18845,17482,81484,103470
2025-05-22 12:22:07.582,90337,18861,17500,81633,103617
2025-05-22 12:22:07.594,90353,18880,17529,81769,103722
2025-05-22 12:22:07.602,90391,18898,17560,81842,103799
2025-05-22 12:22:07.624,90413,18910,17581,81868,103846
2025-05-22 12:22:07.625,90455,18915,17589,81835,103800
2025-05-22 12:22:07.635,90496,18912,17606,81777,103770
2025-05-22 12:22:07.641,90514,18903,17611,81676,103653
2025-05-22 12:22:07.653,90552,18885,17597,81512,103524
2025-05-22 12:22:07.662,90577,18879,17594,81367,103386
2025-05-22 12:22:07.691,90573,18867,17574,81250,103283
2025-05-22 12:22:07.693,90563,18860,17565,81188,103216
2025-05-22 12:22:07.695,90543,18859,17564,81183,103218
2025-05-22 12:22:07.702,90505,18889,17572,81250,103294
2025-05-22 12:22:07.715,90489,18911,17585,81371,103423
2025-05-22 12:22:07.722,90458,18947,17611,81573,103616
2025-05-22 12:22:07.734,90464,18996,17650,81818,103865
2025-05-22 12:22:07.760,90475,19048,17691,82076,104122
2025-05-22 12:22:07.762,90496,19107,17746,82301,104353
2025-05-22 12:22:07.766,90528,19154,17790,82496,104577
2025-05-22 12:22:07.774,90560,19196,17844,82672,104751
2025-05-22 12:22:07.786,90604,19234,17874,82774,104888
2025-05-22 12:22:07.795,90656,19271,17916,82874,105006
2025-05-22 12:22:07.806,90693,19308,17952,82958,105116
2025-05-22 12:22:07.828,90766,19344,17988,83035,105199
2025-05-22 12:22:07.830,90814,19383,18033,83099,105260
2025-05-22 12:22:07.833,90878,19410,18061,83118,105305
2025-05-22 12:22:07.846,90917,19443,18094,83131,105336
2025-05-22 12:22:07.854,90961,19474,18124,83172,105386
2025-05-22 12:22:07.866,91006,19512,18164,83207,105464
2025-05-22 12:22:07.875,91048,19540,18193,83233,105493
2025-05-22 12:22:07.896,91095,19577,18222,83247,105530
2025-05-22 12:22:07.897,91128,19630,18264,83280,105587
2025-05-22 12:22:07.906,91191,19681,18307,83372,105708
2025-05-22 12:22:07.914,91245,19749,18362,83525,105871
2025-05-22 12:22:07.926,91298,19836,18428,83710,106097
2025-05-22 12:22:07.935,91360,19901,18509,84010,106403
2025-05-22 12:22:07.965,91390,19975,18581,84267,106666
2025-05-22 12:22:07.967,91442,20034,18640,84519,106926
2025-05-22 12:22:07.968,91493,20114,18696,84733,107153
2025-05-22 12:22:07.975,91532,20181,18763,84974,107419
2025-05-22 12:22:07.986,91565,20227,18823,85167,107627
2025-05-22 12:22:07.993,91588,20246,18858,85273,107747
2025-05-22 12:22:08.007,91602,20284,18887,85328,107810
2025-05-22 12:22:08.035,91623,20301,18910,85362,107845
2025-05-22 12:22:08.037,91648,20323,18929,85352,107852
2025-05-22 12:22:08.038,91676,20337,18940,85341,107861
2025-05-22 12:22:08.046,91677,20323,18948,85283,107832
2025-05-22 12:22:08.058,91667,20311,18945,85157,107700
2025-05-22 12:22:08.066,91679,20301,18917,85021,107560
2025-05-22 12:22:08.078,91701,20299,18909,84895,107461
2025-05-22 12:22:08.104,91727,20300,18906,84779,107375
2025-05-22 12:22:08.107,91737,20316,18902,84717,107314
2025-05-22 12:22:08.109,91746,20308,18909,84650,107259
2025-05-22 12:22:08.119,91732,20309,18895,84567,107202
2025-05-22 12:22:08.126,91730,20305,18886,84490,107137
2025-05-22 12:22:08.138,91714,20311,18874,84462,107109
2025-05-22 12:22:08.146,91704,20338,18876,84445,107126
2025-05-22 12:22:08.174,91713,20367,18882,84491,107201
2025-05-22 12:22:08.176,91713,20381,18893,84548,107302
2025-05-22 12:22:08.177,91690,20373,18898,84591,107349
2025-05-22 12:22:08.186,91654,20357,18880,84575,107321
2025-05-22 12:22:08.198,91634,20357,18855,84582,107325
2025-05-22 12:22:08.206,91611,20339,18843,84609,107355
2025-05-22 12:22:08.218,91574,20317,18819,84610,107348
2025-05-22 12:22:08.243,91543,20286,18784,84586,107308
2025-05-22 12:22:08.245,91533,20259,18750,84556,107282
2025-05-22 12:22:08.247,91521,20264,18717,84562,107284
2025-05-22 12:22:08.258,91518,20253,18703,84570,107325
2025-05-22 12:22:08.267,91514,20248,18687,84621,107348
2025-05-22 12:22:08.278,91533,20261,18670,84631,107367
2025-05-22 12:22:08.289,91548,20263,18670,84618,107379
2025-05-22 12:22:08.315,91577,20251,18669,84577,107341
2025-05-22 12:22:08.317,91586,20228,18655,84487,107263
2025-05-22 12:22:08.319,91592,20224,18622,84379,107198
2025-05-22 12:22:08.330,91577,20209,18604,84311,107123
2025-05-22 12:22:08.338,91565,20198,18576,84261,107072
2025-05-22 12:22:08.350,91562,20204,18553,84242,107076
2025-05-22 12:22:08.358,91568,20213,18541,84238,107076
2025-05-22 12:22:08.385,91607,20222,18546,84206,107087
2025-05-22 12:22:08.387,91604,20242,18544,84209,107075
2025-05-22 12:22:08.389,91608,20240,18568,84242,107112
2025-05-22 12:22:08.398,91594,20243,18568,84251,107116
2025-05-22 12:22:08.409,91516,20235,18556,84263,107128
2025-05-22 12:22:08.418,91425,20208,18494,84315,107169
2025-05-22 12:22:08.430,91336,20190,18414,84319,107180
2025-05-22 12:22:08.453,91284,20179,18354,84302,107158
2025-05-22 12:22:08.454,91261,20207,18319,84274,107107
2025-05-22 12:22:08.458,91311,20230,18325,84297,107126
2025-05-22 12:22:08.470,91383,20257,18360,84313,107144
2025-05-22 12:22:08.478,91459,20279,18399,84279,107115
2025-05-22 12:22:08.490,91543,20302,18444,84249,107072
2025-05-22 12:22:08.498,91602,20328,18499,84229,107056
2025-05-22 12:22:08.521,91644,20308,18550,84182,106993
2025-05-22 12:22:08.523,91690,20294,18551,84016,106829
2025-05-22 12:22:08.530,91747,20296,18581,83863,106683
2025-05-22 12:22:08.538,91824,20293,18601,83673,106521
2025-05-22 12:22:08.550,91886,20310,18638,83510,106403
2025-05-22 12:22:08.558,91917,20331,18669,83449,106375
2025-05-22 12:22:08.589,91913,20342,18695,83392,106343
2025-05-22 12:22:08.591,91945,20350,18715,83362,106331
2025-05-22 12:22:08.592,91920,20349,18745,83373,106361
2025-05-22 12:22:08.602,91925,20345,18745,83356,106347
2025-05-22 12:22:08.611,91898,20340,18741,83300,106301
2025-05-22 12:22:08.621,91891,20338,18733,83252,106267
2025-05-22 12:22:08.630,91902,20336,18725,83222,106244
2025-05-22 12:22:08.659,91903,20338,18733,83218,106250
2025-05-22 12:22:08.660,91903,20338,18733,83218,106250
2025-05-22 12:22:08.662,91903,20351,18733,83183,106241
2025-05-22 12:22:08.664,91936,20371,18745,83208,106276
2025-05-22 12:22:08.671,91939,20389,18765,83249,106321
2025-05-22 12:22:08.682,91963,20404,18782,83289,106357
2025-05-22 12:22:08.690,91969,20377,18800,83279,106345
2025-05-22 12:22:08.702,91936,20341,18766,83154,106197
2025-05-22 12:22:08.729,91944,20306,18733,83022,106050
2025-05-22 12:22:08.731,91912,20290,18707,82917,105926
2025-05-22 12:22:08.732,91902,20259,18670,82847,105828
2025-05-22 12:22:08.742,91850,20221,18627,82771,105764
2025-05-22 12:22:08.750,91826,20190,18579,82731,105700
2025-05-22 12:22:08.762,91777,20160,18495,82705,105674
2025-05-22 12:22:08.770,91760,20142,18424,82701,105675
2025-05-22 12:22:08.798,91764,20141,18378,82677,105649
2025-05-22 12:22:08.799,91776,20147,18351,82661,105641
2025-05-22 12:22:08.802,91812,20164,18343,82648,105643
2025-05-22 12:22:08.810,91812,20176,18355,82658,105644
2025-05-22 12:22:08.821,91819,20170,18345,82654,105628
2025-05-22 12:22:08.830,91851,20186,18342,82599,105584
2025-05-22 12:22:08.842,91901,20183,18344,82541,105524
2025-05-22 12:22:08.867,91938,20189,18359,82456,105438
2025-05-22 12:22:08.868,92000,20196,18378,82363,105351
2025-05-22 12:22:08.874,92034,20200,18399,82283,105273
2025-05-22 12:22:08.882,92067,20223,18422,82206,105198
2025-05-22 12:22:08.893,92088,20227,18463,82145,105161
2025-05-22 12:22:08.901,92102,20245,18510,82139,105124
2025-05-22 12:22:08.913,92099,20234,18537,82108,105085
2025-05-22 12:22:08.939,92113,20244,18577,82079,105024
2025-05-22 12:22:08.940,92128,20230,18608,82003,104961
2025-05-22 12:22:08.942,92129,20230,18627,81931,104881
2025-05-22 12:22:08.953,92127,20213,18640,81861,104797
2025-05-22 12:22:08.962,92119,20214,18651,81822,104769
2025-05-22 12:22:08.974,92117,20208,18652,81838,104788
2025-05-22 12:22:08.981,92099,20199,18659,81850,104807
2025-05-22 12:22:09.008,92112,20210,18667,81874,104817
2025-05-22 12:22:09.009,92114,20206,18660,81897,104858
2025-05-22 12:22:09.014,92122,20221,18666,81941,104917
2025-05-22 12:22:09.022,92139,20219,18672,81988,104977
2025-05-22 12:22:09.034,92155,20217,18667,81992,104974
2025-05-22 12:22:09.042,92169,20207,18662,81925,104903
2025-05-22 12:22:09.054,92192,20191,18647,81863,104844
2025-05-22 12:22:09.078,92213,20177,18635,81789,104792
2025-05-22 12:22:09.080,92237,20166,18614,81722,104708
2025-05-22 12:22:09.082,92272,20180,18605,81690,104704
2025-05-22 12:22:09.093,92310,20185,18604,81707,104722
2025-05-22 12:22:09.102,92339,20196,18620,81711,104733
2025-05-22 12:22:09.114,92379,20191,18616,81664,104705
2025-05-22 12:22:09.121,92414,20210,18620,81621,104675
2025-05-22 12:22:09.147,92445,20230,18624,81633,104702
2025-05-22 12:22:09.149,92491,20264,18644,81685,104783
2025-05-22 12:22:09.153,92522,20288,18669,81756,104858
2025-05-22 12:22:09.166,92559,20311,18686,81786,104905
2025-05-22 12:22:09.174,92579,20331,18717,81815,104945
2025-05-22 12:22:09.186,92584,20362,18729,81888,105041
2025-05-22 12:22:09.193,92593,20353,18760,81963,105109
2025-05-22 12:22:09.215,92576,20350,18737,81961,105122
2025-05-22 12:22:09.216,92567,20350,18733,81972,105117
2025-05-22 12:22:09.226,92559,20336,18733,81976,105128
2025-05-22 12:22:09.234,92525,20327,18720,81984,105129
2025-05-22 12:22:09.246,92479,20296,18696,81984,105108
2025-05-22 12:22:09.253,92444,20275,18650,81964,105089
2025-05-22 12:22:09.282,92422,20271,18624,82002,105119
2025-05-22 12:22:09.284,92398,20277,18602,82062,105198
2025-05-22 12:22:09.286,92401,20283,18601,82136,105278
2025-05-22 12:22:09.294,92401,20296,18597,82214,105355
2025-05-22 12:22:09.305,92395,20282,18611,82296,105443
2025-05-22 12:22:09.315,92386,20267,18590,82329,105459
2025-05-22 12:22:09.325,92407,20265,18577,82345,105488
2025-05-22 12:22:09.351,92413,20260,18570,82343,105487
2025-05-22 12:22:09.352,92441,20237,18561,82306,105436
2025-05-22 12:22:09.354,92473,20232,18553,82232,105362
2025-05-22 12:22:09.366,92508,20217,18534,82155,105272
2025-05-22 12:22:09.374,92543,20209,18526,82068,105201
2025-05-22 12:22:09.386,92601,20202,18508,82013,105133
2025-05-22 12:22:09.394,92685,20208,18507,81945,105086
2025-05-22 12:22:09.420,92740,20211,18519,81869,105002
2025-05-22 12:22:09.422,92824,20220,18520,81787,104928
2025-05-22 12:22:09.426,92893,20234,18531,81737,104867
2025-05-22 12:22:09.434,92984,20261,18553,81696,104843
2025-05-22 12:22:09.445,93059,20286,18575,81679,104835
2025-05-22 12:22:09.458,93148,20311,18607,81664,104827
2025-05-22 12:22:09.466,93218,20342,18633,81653,104817
2025-05-22 12:22:09.488,93293,20364,18667,81652,104837
2025-05-22 12:22:09.489,93309,20377,18686,81659,104841
2025-05-22 12:22:09.497,93344,20394,18698,81652,104830
2025-05-22 12:22:09.506,93366,20410,18709,81669,104856
2025-05-22 12:22:09.518,93399,20420,18730,81690,104863
2025-05-22 12:22:09.526,93406,20442,18731,81696,104875
2025-05-22 12:22:09.557,93413,20450,18750,81719,104892
2025-05-22 12:22:09.559,93415,20474,18767,81764,104934
2025-05-22 12:22:09.561,93408,20498,18788,81820,105004
2025-05-22 12:22:09.566,93419,20524,18808,81891,105075
2025-05-22 12:22:09.578,93416,20542,18831,81949,105139
2025-05-22 12:22:09.586,93398,20550,18845,81972,105151
2025-05-22 12:22:09.598,93395,20562,18862,81978,105171
2025-05-22 12:22:09.605,93375,20561,18864,81960,105140
2025-05-22 12:22:09.631,93351,20565,18868,81916,105104
2025-05-22 12:22:09.632,93335,20562,18866,81875,105050
2025-05-22 12:22:09.638,93302,20556,18866,81833,105014
2025-05-22 12:22:09.646,93282,20535,18857,81767,104946
2025-05-22 12:22:09.658,93262,20530,18835,81715,104900
2025-05-22 12:22:09.666,93250,20522,18825,81689,104877
2025-05-22 12:22:09.678,93213,20513,18802,81658,104847
2025-05-22 12:22:09.698,93185,20489,18779,81618,104817
2025-05-22 12:22:09.699,93141,20463,18747,81568,104747
2025-05-22 12:22:09.706,93113,20437,18714,81495,104674
2025-05-22 12:22:09.718,93093,20417,18680,81436,104611
2025-05-22 12:22:09.726,93070,20422,18647,81444,104630
2025-05-22 12:22:09.737,93051,20438,18640,81518,104722
2025-05-22 12:22:09.767,93050,20452,18643,81627,104828
2025-05-22 12:22:09.769,93040,20474,18644,81729,104944
2025-05-22 12:22:09.770,93063,20481,18659,81791,105018
2025-05-22 12:22:09.779,93078,20487,18670,81816,105037
2025-05-22 12:22:09.790,93105,20481,18669,81775,104989
2025-05-22 12:22:09.797,93110,20467,18665,81702,104932
2025-05-22 12:22:09.809,93102,20455,18650,81656,104878
2025-05-22 12:22:09.838,93079,20440,18642,81612,104828
2025-05-22 12:22:09.840,93065,20430,18614,81579,104789
2025-05-22 12:22:09.841,93047,20427,18603,81564,104783
2025-05-22 12:22:09.850,93048,20427,18587,81553,104764
2025-05-22 12:22:09.853,93048,20427,18587,81553,104764
2025-05-22 12:22:09.857,93061,20436,18596,81559,104784
2025-05-22 12:22:09.870,93052,20449,18611,81561,104779
2025-05-22 12:22:09.878,93042,20462,18606,81562,104776
2025-05-22 12:22:09.908,93044,20461,18608,81558,104760
2025-05-22 12:22:09.910,93033,20458,18621,81505,104717
2025-05-22 12:22:09.912,93026,20453,18615,81458,104654
2025-05-22 12:22:09.918,93005,20441,18610,81396,104591
2025-05-22 12:22:09.930,92981,20423,18596,81331,104504
2025-05-22 12:22:09.937,92949,20402,18577,81253,104435
2025-05-22 12:22:09.949,92918,20408,18564,81248,104394
2025-05-22 12:22:09.977,92879,20403,18554,81249,104381
2025-05-22 12:22:09.979,92839,20398,18552,81252,104376
2025-05-22 12:22:09.980,92779,20383,18544,81274,104368
2025-05-22 12:22:10.009,92738,20362,18521,81282,104352
2025-05-22 12:22:10.011,92709,20350,18501,81268,104321
2025-05-22 12:22:10.012,92698,20346,18488,81248,104271
2025-05-22 12:22:10.021,92691,20340,18487,81205,104219
2025-05-22 12:22:10.043,92676,20338,18473,81169,104175
2025-05-22 12:22:10.044,92688,20339,18474,81147,104140
2025-05-22 12:22:10.050,92695,20344,18493,81121,104109
2025-05-22 12:22:10.062,92672,20325,18499,81080,104063
2025-05-22 12:22:10.070,92645,20307,18487,81024,103983
2025-05-22 12:22:10.082,92637,20309,18479,81013,103972
2025-05-22 12:22:10.090,92625,20320,18477,81037,103996
2025-05-22 12:22:10.113,92644,20339,18485,81081,104030
2025-05-22 12:22:10.115,92669,20372,18503,81136,104078
2025-05-22 12:22:10.122,92707,20404,18540,81181,104160
2025-05-22 12:22:10.130,92738,20426,18575,81189,104175
2025-05-22 12:22:10.142,92742,20432,18606,81166,104159
2025-05-22 12:22:10.150,92725,20436,18630,81177,104163
2025-05-22 12:22:10.162,92723,20443,18642,81203,104164
2025-05-22 12:22:10.184,92709,20464,18649,81257,104193
2025-05-22 12:22:10.185,92730,20491,18681,81332,104270
2025-05-22 12:22:10.190,92749,20518,18717,81407,104350
2025-05-22 12:22:10.202,92759,20544,18752,81481,104412
2025-05-22 12:22:10.210,92796,20578,18791,81541,104480
2025-05-22 12:22:10.222,92809,20609,18829,81618,104562
2025-05-22 12:22:10.230,92839,20636,18869,81676,104616
2025-05-22 12:22:10.250,92878,20675,18900,81715,104678
2025-05-22 12:22:10.254,92924,20718,18954,81773,104743
2025-05-22 12:22:10.262,92992,20775,18994,81822,104810
2025-05-22 12:22:10.270,93057,20815,19053,81873,104892
2025-05-22 12:22:10.282,93064,20843,19100,81898,104942
2025-05-22 12:22:10.289,93063,20865,19119,81888,104971
2025-05-22 12:22:10.318,93048,20866,19124,81901,104994
2025-05-22 12:22:10.320,93003,20834,19117,81908,105026
2025-05-22 12:22:10.322,92914,20751,19066,81795,104920
2025-05-22 12:22:10.334,92846,20703,18965,81637,104768
2025-05-22 12:22:10.342,92788,20658,18886,81552,104698
2025-05-22 12:22:10.354,92702,20614,18812,81461,104628
2025-05-22 12:22:10.362,92629,20555,18737,81385,104583
2025-05-22 12:22:10.386,92587,20508,18641,81295,104498
2025-05-22 12:22:10.387,92535,20467,18546,81194,104419
2025-05-22 12:22:10.394,92490,20440,18467,81101,104357
2025-05-22 12:22:10.401,92424,20415,18398,81047,104309
2025-05-22 12:22:10.414,92345,20378,18326,80989,104293
2025-05-22 12:22:10.422,92289,20373,18244,80972,104289
2025-05-22 12:22:10.434,92239,20367,18170,80979,104353
2025-05-22 12:22:10.456,92188,20389,18116,81031,104431
2025-05-22 12:22:10.457,92126,20410,18057,81097,104551
2025-05-22 12:22:10.462,92075,20455,17992,81230,104747
2025-05-22 12:22:10.474,92015,20492,17927,81361,104947
2025-05-22 12:22:10.481,91982,20520,17868,81417,105064
2025-05-22 12:22:10.493,91922,20561,17816,81465,105175
2025-05-22 12:22:10.502,91867,20641,17766,81576,105344
2025-05-22 12:22:10.524,91791,20750,17751,81792,105647
2025-05-22 12:22:10.525,91716,20870,17764,82070,106016
2025-05-22 12:22:10.534,91660,20992,17793,82337,106367
2025-05-22 12:22:10.541,91628,21123,17827,82598,106710
2025-05-22 12:22:10.553,91610,21251,17881,82907,107115
2025-05-22 12:22:10.561,91616,21374,17955,83205,107466
2025-05-22 12:22:10.590,91622,21490,18032,83452,107774
2025-05-22 12:22:10.592,91643,21602,18093,83723,108122
2025-05-22 12:22:10.594,91649,21716,18158,83952,108420
2025-05-22 12:22:10.606,91644,21850,18233,84206,108737
2025-05-22 12:22:10.613,91662,22004,18328,84507,109120
2025-05-22 12:22:10.626,91696,22181,18460,84870,109564
2025-05-22 12:22:10.633,91751,22377,18621,85229,110005
2025-05-22 12:22:10.659,91816,22679,18799,85524,110227
2025-05-22 12:22:10.661,91893,22948,19009,85534,110203
2025-05-22 12:22:10.666,91981,23229,19246,85906,110606
2025-05-22 12:22:10.673,92065,23525,19540,86461,111214
2025-05-22 12:22:10.685,92151,23706,19801,86754,111503
2025-05-22 12:22:10.694,92224,23876,19993,87028,111817
2025-05-22 12:22:10.706,92294,24033,20166,87288,112090
2025-05-22 12:22:10.728,92331,24153,20328,87514,112355
2025-05-22 12:22:10.729,92385,24273,20485,87701,112569
2025-05-22 12:22:10.733,92420,24395,20644,87914,112783
2025-05-22 12:22:10.745,92480,24523,20807,88152,113063
2025-05-22 12:22:10.754,92508,24662,20987,88415,113338
2025-05-22 12:22:10.766,92550,24799,21161,88682,113654
2025-05-22 12:22:10.774,92566,24973,21365,89021,114018
2025-05-22 12:22:10.796,92591,25140,21581,89414,114430
2025-05-22 12:22:10.798,92580,25327,21800,89773,114816
2025-05-22 12:22:10.806,92567,25500,22041,90184,115246
2025-05-22 12:22:10.814,92507,25649,22291,90555,115637
2025-05-22 12:22:10.825,92390,25757,22532,90877,115938
2025-05-22 12:22:10.833,92165,25793,22739,91094,116135
2025-05-22 12:22:10.864,91852,25784,22866,91144,116135
2025-05-22 12:22:10.866,91464,25734,22920,91115,116062
2025-05-22 12:22:10.867,91464,25734,22920,91115,116062
2025-05-22 12:22:10.868,90656,25541,22883,90689,115502
2025-05-22 12:22:10.873,90285,25459,22832,90369,115151
2025-05-22 12:22:10.885,89953,25459,22813,90145,114906
2025-05-22 12:22:10.897,89672,25506,22863,90058,114859
2025-05-22 12:22:10.905,89428,25625,22994,90137,114984
2025-05-22 12:22:10.932,89243,25825,23172,90457,115306
2025-05-22 12:22:10.933,89081,26061,23440,90977,115853
2025-05-22 12:22:10.937,88949,26287,23801,91568,116460
2025-05-22 12:22:10.946,88830,26427,24190,92124,116985
2025-05-22 12:22:10.958,88768,26540,24519,92498,117335
2025-05-22 12:22:10.966,88708,26584,24770,92754,117596
2025-05-22 12:22:10.978,88643,26569,24922,92805,117625
2025-05-22 12:22:11.000,88568,26528,24999,92714,117539
2025-05-22 12:22:11.002,88489,26459,25041,92545,117353
2025-05-22 12:22:11.006,88424,26364,25045,92322,117136
2025-05-22 12:22:11.018,88359,26253,25014,92006,116820
2025-05-22 12:22:11.026,88308,26165,24962,91641,116450
2025-05-22 12:22:11.037,88270,26125,24907,91348,116172
2025-05-22 12:22:11.046,88253,26079,24901,91193,116030
2025-05-22 12:22:11.069,88227,26011,24881,91018,115850
2025-05-22 12:22:11.070,88224,25928,24827,90745,115588
2025-05-22 12:22:11.077,88261,25868,24738,90469,115307
2025-05-22 12:22:11.085,88338,25863,24652,90225,115076
2025-05-22 12:22:11.097,88428,25853,24578,90075,114943
2025-05-22 12:22:11.106,88524,25792,24500,89929,114808
2025-05-22 12:22:11.118,88644,25661,24348,89669,114541
2025-05-22 12:22:11.138,88788,25378,24143,89165,114001
2025-05-22 12:22:11.139,88933,24934,23819,88217,112987
2025-05-22 12:22:11.146,89181,24416,23353,86922,111615
2025-05-22 12:22:11.157,89520,23920,22812,85525,110116
2025-05-22 12:22:11.171,89892,23501,22295,84177,108703
2025-05-22 12:22:11.178,90267,23127,21846,82995,107446
2025-05-22 12:22:11.205,90579,22767,21480,81890,106276
2025-05-22 12:22:11.206,90843,22432,21159,80737,105051
2025-05-22 12:22:11.210,90986,22165,20872,79652,103890
2025-05-22 12:22:11.217,91049,21992,20664,78758,102928
2025-05-22 12:22:11.229,91076,21890,20539,78103,102225
2025-05-22 12:22:11.238,91084,21837,20463,77655,101736
2025-05-22 12:22:11.250,91086,21821,20431,77378,101429
2025-05-22 12:22:11.274,91058,21857,20427,77275,101284
2025-05-22 12:22:11.275,91020,21876,20454,77308,101281
2025-05-22 12:22:11.277,90933,21890,20486,77336,101274
2025-05-22 12:22:11.290,90806,21880,20497,77374,101269
2025-05-22 12:22:11.298,90677,21849,20473,77342,101188
2025-05-22 12:22:11.309,90520,21814,20437,77283,101086
2025-05-22 12:22:11.318,90405,21792,20396,77242,100973
2025-05-22 12:22:11.342,90310,21783,20376,77235,100937
2025-05-22 12:22:11.343,90222,21779,20371,77278,100961
2025-05-22 12:22:11.350,90122,21756,20366,77315,100973
2025-05-22 12:22:11.357,90026,21732,20337,77313,100942
2025-05-22 12:22:11.369,89957,21714,20319,77335,100933
2025-05-22 12:22:11.377,89903,21697,20285,77358,100940
2025-05-22 12:22:11.390,89892,21682,20273,77364,100915
