Timestamp,PPG1,PPG2,PPG3,PPG4,PPG5
2025-04-11 11:15:59.221,105320,18124,18455,77511,101768
2025-04-11 11:15:59.393,149708,18163,18511,84500,136133
2025-04-11 11:15:59.399,149781,18151,18515,84716,136345
2025-04-11 11:15:59.409,149859,18146,18516,84953,136595
2025-04-11 11:15:59.422,149877,18122,18505,85094,136740
2025-04-11 11:15:59.433,149843,18069,18465,85139,136749
2025-04-11 11:15:59.462,149822,18016,18422,85183,136787
2025-04-11 11:15:59.464,149830,18009,18417,85205,136813
2025-04-11 11:15:59.465,149835,17981,18399,85215,136822
2025-04-11 11:15:59.466,149824,17972,18396,85239,136820
2025-04-11 11:15:59.467,149837,17961,18384,85242,136863
2025-04-11 11:15:59.469,149824,17952,18377,85257,136839
2025-04-11 11:15:59.470,149808,17942,18368,85256,136838
2025-04-11 11:15:59.471,149818,17927,18355,85252,136855
2025-04-11 11:15:59.473,149813,17912,18345,85259,136832
2025-04-11 11:15:59.474,149809,17898,18335,85263,136820
2025-04-11 11:15:59.475,149799,17886,18324,85260,136825
2025-04-11 11:15:59.477,149781,17874,18312,85242,136846
2025-04-11 11:15:59.478,149787,17864,18300,85252,136816
2025-04-11 11:15:59.479,149791,17846,18299,85247,136839
2025-04-11 11:15:59.479,149787,17835,18283,85247,136800
2025-04-11 11:15:59.480,149787,17835,18283,85247,136800
2025-04-11 11:15:59.481,149787,17835,18283,85247,136800
2025-04-11 11:15:59.481,149787,17835,18283,85247,136800
2025-04-11 11:15:59.482,149787,17835,18283,85247,136800
2025-04-11 11:15:59.483,149787,17835,18283,85247,136800
2025-04-11 11:15:59.484,149787,17835,18283,85247,136800
2025-04-11 11:15:59.485,149787,17835,18283,85247,136800
2025-04-11 11:15:59.485,149787,17835,18283,85247,136800
2025-04-11 11:15:59.486,149544,17675,18108,85142,136645
2025-04-11 11:15:59.487,149515,17653,18087,85113,136609
2025-04-11 11:15:59.488,149494,17631,18063,85108,136574
2025-04-11 11:15:59.489,149457,17608,18038,85089,136558
2025-04-11 11:15:59.490,149446,17587,18020,85073,136534
2025-04-11 11:15:59.490,149422,17566,17999,85062,136522
2025-04-11 11:15:59.491,149398,17543,17983,85050,136473
2025-04-11 11:15:59.493,149373,17516,17967,85045,136471
2025-04-11 11:15:59.494,149376,17502,17950,85050,136468
2025-04-11 11:15:59.495,149360,17485,17938,85012,136436
2025-04-11 11:15:59.496,149346,17471,17922,85016,136421
2025-04-11 11:15:59.497,149333,17450,17907,84999,136415
2025-04-11 11:15:59.497,149335,17437,17895,84984,136385
2025-04-11 11:15:59.498,149318,17418,17881,84981,136349
2025-04-11 11:15:59.499,149318,17406,17873,84952,136339
2025-04-11 11:15:59.499,149308,17391,17862,84960,136354
2025-04-11 11:15:59.500,149300,17379,17853,84946,136330
2025-04-11 11:15:59.501,149297,17365,17842,84926,136318
2025-04-11 11:15:59.501,149265,17349,17834,84933,136303
2025-04-11 11:15:59.502,149266,17336,17821,84920,136277
2025-04-11 11:15:59.502,149266,17336,17821,84920,136277
2025-04-11 11:15:59.503,149266,17336,17821,84920,136277
2025-04-11 11:15:59.504,149213,17288,17791,84904,136247
2025-04-11 11:15:59.504,149214,17283,17776,84875,136244
2025-04-11 11:15:59.505,149196,17266,17771,84867,136207
2025-04-11 11:15:59.506,149191,17255,17754,84861,136201
2025-04-11 11:15:59.507,149168,17241,17745,84862,136177
2025-04-11 11:15:59.508,149166,17226,17735,84848,136186
2025-04-11 11:15:59.528,149158,17216,17730,84854,136176
2025-04-11 11:15:59.530,149154,17207,17718,84849,136181
2025-04-11 11:15:59.531,149139,17187,17702,84823,136171
2025-04-11 11:15:59.532,149136,17181,17692,84823,136140
2025-04-11 11:15:59.533,149123,17167,17686,84821,136136
2025-04-11 11:15:59.535,149116,17156,17678,84814,136104
2025-04-11 11:15:59.536,149107,17142,17670,84803,136085
2025-04-11 11:15:59.538,149106,17134,17662,84797,136095
2025-04-11 11:15:59.539,149096,17126,17653,84803,136100
2025-04-11 11:15:59.540,149091,17110,17648,84794,136072
2025-04-11 11:15:59.543,149076,17107,17644,84784,136069
2025-04-11 11:15:59.550,149062,17097,17636,84783,136085
2025-04-11 11:15:59.558,149062,17083,17630,84774,136060
2025-04-11 11:15:59.570,149060,17077,17623,84768,136036
2025-04-11 11:15:59.600,149041,17065,17618,84763,136041
2025-04-11 11:15:59.601,149053,17058,17609,84759,136021
2025-04-11 11:15:59.602,149039,17049,17603,84745,136008
2025-04-11 11:15:59.611,149034,17043,17600,84739,135990
2025-04-11 11:15:59.619,149027,17036,17593,84726,135995
2025-04-11 11:15:59.630,149028,17029,17590,84721,135995
2025-04-11 11:15:59.638,149034,17020,17584,84714,135993
2025-04-11 11:15:59.687,149017,17009,17584,84715,135993
2025-04-11 11:15:59.688,149003,17002,17578,84719,135952
2025-04-11 11:15:59.689,149007,16993,17570,84710,135948
2025-04-11 11:15:59.690,148991,16987,17561,84695,135929
2025-04-11 11:15:59.691,148994,16980,17559,84695,135913
2025-04-11 11:15:59.698,148988,16975,17554,84682,135914
2025-04-11 11:15:59.709,148967,16963,17552,84674,135906
2025-04-11 11:15:59.719,148981,16959,17543,84650,135874
2025-04-11 11:15:59.730,148961,16950,17537,84654,135890
2025-04-11 11:15:59.748,148950,16947,17529,84639,135885
2025-04-11 11:15:59.750,148937,16941,17523,84638,135870
2025-04-11 11:15:59.765,148908,16924,17510,84630,135844
2025-04-11 11:15:59.770,148877,16915,17498,84610,135831
2025-04-11 11:15:59.774,148877,16915,17498,84610,135831
2025-04-11 11:15:59.782,148824,16885,17466,84591,135799
2025-04-11 11:15:59.789,148804,16874,17451,84578,135763
2025-04-11 11:15:59.812,148780,16851,17434,84564,135734
2025-04-11 11:15:59.814,148741,16835,17411,84543,135717
2025-04-11 11:15:59.822,148721,16827,17398,84535,135694
2025-04-11 11:15:59.831,148696,16803,17384,84537,135672
2025-04-11 11:15:59.842,148701,16790,17369,84537,135658
2025-04-11 11:15:59.850,148694,16776,17360,84519,135658
2025-04-11 11:15:59.875,148685,16763,17352,84511,135632
2025-04-11 11:15:59.877,148664,16752,17341,84503,135617
2025-04-11 11:15:59.882,148660,16738,17330,84490,135610
2025-04-11 11:15:59.890,148642,16733,17324,84485,135588
2025-04-11 11:15:59.902,148642,16727,17324,84478,135606
2025-04-11 11:15:59.910,148638,16716,17321,84476,135588
2025-04-11 11:15:59.922,148653,16712,17315,84465,135590
2025-04-11 11:15:59.939,148629,16704,17309,84453,135567
2025-04-11 11:15:59.942,148625,16700,17310,84470,135576
2025-04-11 11:15:59.950,148626,16691,17310,84475,135564
2025-04-11 11:15:59.961,148637,16696,17306,84463,135551
2025-04-11 11:15:59.974,148624,16688,17305,84463,135550
2025-04-11 11:15:59.982,148603,16686,17300,84470,135535
2025-04-11 11:16:00.002,148592,16681,17299,84460,135549
2025-04-11 11:16:00.004,148594,16670,17292,84446,135535
2025-04-11 11:16:00.015,148590,16669,17288,84437,135514
2025-04-11 11:16:00.022,148561,16661,17288,84449,135500
2025-04-11 11:16:00.034,148555,16662,17281,84428,135487
2025-04-11 11:16:00.042,148553,16657,17277,84443,135488
2025-04-11 11:16:00.068,148549,16649,17272,84419,135473
2025-04-11 11:16:00.069,148534,16646,17267,84426,135460
2025-04-11 11:16:00.074,148550,16636,17262,84424,135484
2025-04-11 11:16:00.082,148529,16633,17257,84428,135467
2025-04-11 11:16:00.094,148528,16626,17252,84424,135468
2025-04-11 11:16:00.102,148501,16624,17247,84400,135453
2025-04-11 11:16:00.113,148500,16618,17243,84410,135446
2025-04-11 11:16:00.131,148481,16608,17241,84409,135429
2025-04-11 11:16:00.134,148490,16604,17236,84397,135423
2025-04-11 11:16:00.141,148491,16598,17232,84395,135423
2025-04-11 11:16:00.154,148469,16595,17223,84385,135411
2025-04-11 11:16:00.161,148477,16593,17225,84380,135391
2025-04-11 11:16:00.174,148487,16584,17216,84365,135382
2025-04-11 11:16:00.196,148470,16585,17225,84367,135384
2025-04-11 11:16:00.197,148461,16580,17222,84371,135358
2025-04-11 11:16:00.202,148455,16583,17224,84372,135384
2025-04-11 11:16:00.214,148461,16585,17219,84371,135381
2025-04-11 11:16:00.222,148448,16581,17219,84361,135376
2025-04-11 11:16:00.234,148442,16575,17219,84367,135377
2025-04-11 11:16:00.259,148437,16566,17219,84356,135360
2025-04-11 11:16:00.261,148439,16569,17217,84359,135358
2025-04-11 11:16:00.266,148435,16564,17217,84346,135335
2025-04-11 11:16:00.273,148453,16565,17217,84354,135336
2025-04-11 11:16:00.286,148452,16560,17218,84336,135323
2025-04-11 11:16:00.293,148431,16563,17212,84344,135332
2025-04-11 11:16:00.306,148430,16559,17220,84347,135335
2025-04-11 11:16:00.323,148429,16558,17213,84352,135341
2025-04-11 11:16:00.326,148426,16555,17213,84349,135331
2025-04-11 11:16:00.333,148423,16557,17212,84338,135329
2025-04-11 11:16:00.345,148406,16553,17209,84325,135319
2025-04-11 11:16:00.354,148410,16547,17205,84319,135293
2025-04-11 11:16:00.365,148397,16544,17205,84323,135293
2025-04-11 11:16:00.388,148372,16540,17194,84307,135247
2025-04-11 11:16:00.389,148343,16535,17184,84289,135234
2025-04-11 11:16:00.394,148320,16531,17178,84273,135240
2025-04-11 11:16:00.406,148300,16521,17170,84264,135230
2025-04-11 11:16:00.413,148278,16516,17151,84251,135205
2025-04-11 11:16:00.426,148257,16498,17141,84248,135180
2025-04-11 11:16:00.433,148230,16487,17123,84250,135172
2025-04-11 11:16:00.453,148212,16470,17107,84227,135138
2025-04-11 11:16:00.454,148177,16463,17091,84215,135131
2025-04-11 11:16:00.466,148159,16447,17082,84207,135085
2025-04-11 11:16:00.478,148140,16429,17065,84187,135068
2025-04-11 11:16:00.485,148138,16418,17057,84180,135041
2025-04-11 11:16:00.498,148114,16408,17044,84174,135039
2025-04-11 11:16:00.516,148118,16396,17038,84153,135026
2025-04-11 11:16:00.518,148098,16392,17037,84152,135009
2025-04-11 11:16:00.526,148093,16382,17033,84141,135017
2025-04-11 11:16:00.537,148096,16377,17028,84134,135011
2025-04-11 11:16:00.546,148090,16370,17024,84141,134993
2025-04-11 11:16:00.557,148089,16371,17017,84139,134998
2025-04-11 11:16:00.579,148083,16371,17026,84146,135015
2025-04-11 11:16:00.581,148091,16366,17023,84145,134987
2025-04-11 11:16:00.582,148091,16366,17023,84145,134987
2025-04-11 11:16:00.586,148087,16365,17023,84138,134966
2025-04-11 11:16:00.598,148081,16366,17024,84136,134966
2025-04-11 11:16:00.605,148081,16362,17020,84128,134968
2025-04-11 11:16:00.618,148076,16361,17021,84124,134956
2025-04-11 11:16:00.625,148073,16362,17015,84111,134976
2025-04-11 11:16:00.643,148061,16358,17019,84122,134955
2025-04-11 11:16:00.646,148061,16357,17019,84106,134930
2025-04-11 11:16:00.658,148062,16356,17013,84097,134942
2025-04-11 11:16:00.666,148055,16361,17012,84103,134941
2025-04-11 11:16:00.678,148038,16355,17005,84100,134930
2025-04-11 11:16:00.685,148033,16356,17011,84103,134919
2025-04-11 11:16:00.708,148029,16354,17002,84093,134916
2025-04-11 11:16:00.709,148026,16349,17004,84091,134906
2025-04-11 11:16:00.718,148021,16346,17001,84075,134879
2025-04-11 11:16:00.729,148012,16345,16995,84087,134898
2025-04-11 11:16:00.738,148007,16337,16998,84074,134870
2025-04-11 11:16:00.749,148011,16342,16993,84058,134869
2025-04-11 11:16:00.771,148005,16335,16992,84065,134853
2025-04-11 11:16:00.772,147990,16332,16987,84059,134857
2025-04-11 11:16:00.778,147985,16330,16992,84065,134853
2025-04-11 11:16:00.790,147992,16333,16992,84059,134843
2025-04-11 11:16:00.797,147995,16328,16993,84067,134848
2025-04-11 11:16:00.809,148001,16335,16993,84056,134832
2025-04-11 11:16:00.817,147985,16334,16998,84056,134846
2025-04-11 11:16:00.834,147992,16332,16998,84065,134839
2025-04-11 11:16:00.838,147981,16331,16996,84048,134852
2025-04-11 11:16:00.850,147997,16332,16994,84059,134831
2025-04-11 11:16:00.857,147984,16335,16999,84049,134819
2025-04-11 11:16:00.869,147987,16332,16996,84044,134815
2025-04-11 11:16:00.877,147980,16336,16997,84041,134805
2025-04-11 11:16:00.899,147984,16336,17005,84037,134811
2025-04-11 11:16:00.901,147975,16334,16999,84044,134822
2025-04-11 11:16:00.910,147989,16342,17006,84043,134819
2025-04-11 11:16:00.917,147996,16336,17008,84043,134811
2025-04-11 11:16:00.929,147984,16340,17011,84055,134817
2025-04-11 11:16:00.938,147986,16339,17009,84040,134821
2025-04-11 11:16:00.964,147989,16342,17007,84041,134809
2025-04-11 11:16:00.965,147985,16341,17012,84040,134820
2025-04-11 11:16:00.970,147991,16347,17015,84042,134786
2025-04-11 11:16:00.981,147981,16346,17013,84023,134804
2025-04-11 11:16:00.990,147965,16344,17008,84043,134770
2025-04-11 11:16:01.001,147940,16345,17003,84022,134780
2025-04-11 11:16:01.009,147930,16345,17000,84026,134755
2025-04-11 11:16:01.027,147905,16341,16995,84002,134760
2025-04-11 11:16:01.029,147889,16329,16986,84005,134740
2025-04-11 11:16:01.042,147871,16323,16971,83980,134731
2025-04-11 11:16:01.050,147841,16315,16961,83984,134691
2025-04-11 11:16:01.061,147825,16307,16944,83962,134675
2025-04-11 11:16:01.070,147792,16299,16931,83951,134658
2025-04-11 11:16:01.090,147785,16286,16917,83927,134653
2025-04-11 11:16:01.092,147771,16277,16908,83938,134634
2025-04-11 11:16:01.102,147750,16263,16899,83930,134611
2025-04-11 11:16:01.109,147745,16257,16885,83913,134587
2025-04-11 11:16:01.121,147730,16247,16878,83915,134595
2025-04-11 11:16:01.129,147719,16239,16878,83906,134580
2025-04-11 11:16:01.153,147724,16231,16869,83888,134552
2025-04-11 11:16:01.154,147722,16228,16866,83882,134546
2025-04-11 11:16:01.162,147713,16226,16867,83887,134558
2025-04-11 11:16:01.169,147726,16223,16864,83887,134542
2025-04-11 11:16:01.181,147725,16224,16865,83880,134528
2025-04-11 11:16:01.189,147710,16223,16865,83879,134536
2025-04-11 11:16:01.201,147706,16222,16870,83889,134536
2025-04-11 11:16:01.217,147726,16229,16871,83891,134534
2025-04-11 11:16:01.221,147719,16225,16872,83883,134528
2025-04-11 11:16:01.233,147713,16225,16867,83872,134550
2025-04-11 11:16:01.241,147711,16229,16873,83876,134519
2025-04-11 11:16:01.253,147706,16227,16876,83874,134509
2025-04-11 11:16:01.261,147723,16232,16877,83862,134522
2025-04-11 11:16:01.280,147721,16231,16877,83864,134521
2025-04-11 11:16:01.282,147700,16234,16875,83880,134516
2025-04-11 11:16:01.293,147673,16232,16878,83864,134511
2025-04-11 11:16:01.301,147683,16233,16878,83865,134507
2025-04-11 11:16:01.313,147691,16235,16874,83863,134498
2025-04-11 11:16:01.321,147677,16232,16871,83850,134483
2025-04-11 11:16:01.344,147690,16233,16873,83849,134483
2025-04-11 11:16:01.345,147673,16227,16871,83860,134469
2025-04-11 11:16:01.353,147681,16233,16872,83848,134477
2025-04-11 11:16:01.362,147683,16229,16874,83844,134470
2025-04-11 11:16:01.373,147669,16230,16869,83844,134471
2025-04-11 11:16:01.385,147674,16228,16876,83855,134436
2025-04-11 11:16:01.386,147674,16228,16876,83855,134436
2025-04-11 11:16:01.408,147693,16232,16874,83852,134451
2025-04-11 11:16:01.409,147682,16233,16876,83845,134478
2025-04-11 11:16:01.413,147679,16238,16878,83851,134465
2025-04-11 11:16:01.422,147668,16234,16881,83835,134433
2025-04-11 11:16:01.433,147680,16237,16886,83849,134455
2025-04-11 11:16:01.442,147677,16240,16886,83842,134458
2025-04-11 11:16:01.453,147695,16243,16893,83844,134451
2025-04-11 11:16:01.470,147692,16245,16893,83842,134452
2025-04-11 11:16:01.473,147694,16247,16898,83855,134449
2025-04-11 11:16:01.486,147713,16251,16900,83840,134466
2025-04-11 11:16:01.493,147703,16256,16902,83851,134451
2025-04-11 11:16:01.505,147694,16258,16898,83846,134457
2025-04-11 11:16:01.513,147700,16264,16908,83863,134454
2025-04-11 11:16:01.535,147690,16264,16913,83858,134474
2025-04-11 11:16:01.537,147691,16264,16914,83864,134461
2025-04-11 11:16:01.545,147710,16271,16916,83861,134445
2025-04-11 11:16:01.553,147704,16271,16921,83844,134456
2025-04-11 11:16:01.565,147708,16269,16917,83865,134444
2025-04-11 11:16:01.573,147706,16275,16925,83850,134453
2025-04-11 11:16:01.600,147704,16279,16928,83851,134449
2025-04-11 11:16:01.601,147716,16277,16926,83848,134453
2025-04-11 11:16:01.605,147707,16281,16930,83845,134444
2025-04-11 11:16:01.613,147704,16286,16938,83851,134454
2025-04-11 11:16:01.625,147701,16284,16931,83856,134456
2025-04-11 11:16:01.634,147711,16284,16936,83848,134433
2025-04-11 11:16:01.645,147707,16293,16935,83858,134447
2025-04-11 11:16:01.663,147680,16288,16933,83856,134448
2025-04-11 11:16:01.665,147642,16284,16923,83834,134432
2025-04-11 11:16:01.673,147628,16277,16916,83814,134395
2025-04-11 11:16:01.685,147607,16274,16905,83820,134370
2025-04-11 11:16:01.693,147597,16259,16892,83793,134384
2025-04-11 11:16:01.705,147566,16256,16876,83768,134322
2025-04-11 11:16:01.727,147531,16238,16867,83770,134327
2025-04-11 11:16:01.728,147504,16224,16846,83742,134279
2025-04-11 11:16:01.737,147511,16214,16837,83738,134283
2025-04-11 11:16:01.745,147486,16206,16827,83737,134242
2025-04-11 11:16:01.757,147465,16196,16817,83727,134227
2025-04-11 11:16:01.764,147443,16184,16801,83715,134239
2025-04-11 11:16:01.790,147431,16173,16797,83711,134224
2025-04-11 11:16:01.791,147444,16166,16791,83708,134209
2025-04-11 11:16:01.797,147422,16154,16782,83689,134217
2025-04-11 11:16:01.805,147416,16147,16773,83699,134212
2025-04-11 11:16:01.817,147417,16146,16769,83688,134190
2025-04-11 11:16:01.825,147414,16140,16773,83674,134176
2025-04-11 11:16:01.837,147410,16135,16770,83682,134168
2025-04-11 11:16:01.853,147412,16130,16769,83677,134162
2025-04-11 11:16:01.857,147407,16133,16770,83664,134154
2025-04-11 11:16:01.865,147421,16131,16773,83666,134155
2025-04-11 11:16:01.877,147427,16135,16777,83673,134159
2025-04-11 11:16:01.886,147418,16136,16778,83683,134157
2025-04-11 11:16:01.897,147437,16144,16782,83680,134162
2025-04-11 11:16:01.916,147437,16144,16783,83686,134160
2025-04-11 11:16:01.918,147438,16147,16785,83681,134164
2025-04-11 11:16:01.925,147424,16154,16790,83689,134188
2025-04-11 11:16:01.936,147424,16153,16790,83684,134178
2025-04-11 11:16:01.945,147444,16149,16792,83702,134185
2025-04-11 11:16:01.957,147441,16154,16794,83688,134187
2025-04-11 11:16:01.964,147443,16159,16795,83693,134174
2025-04-11 11:16:01.981,147419,16161,16796,83691,134183
2025-04-11 11:16:01.989,147443,16161,16798,83706,134173
2025-04-11 11:16:01.997,147431,16161,16801,83707,134174
2025-04-11 11:16:02.009,147430,16158,16798,83706,134159
2025-04-11 11:16:02.017,147432,16162,16797,83700,134176
2025-04-11 11:16:02.028,147431,16153,16802,83710,134159
2025-04-11 11:16:02.045,147445,16155,16801,83685,134158
2025-04-11 11:16:02.049,147440,16153,16801,83690,134151
2025-04-11 11:16:02.056,147427,16150,16804,83682,134147
2025-04-11 11:16:02.069,147416,16154,16799,83696,134150
2025-04-11 11:16:02.077,147420,16155,16801,83677,134149
2025-04-11 11:16:02.089,147445,16155,16802,83689,134147
2025-04-11 11:16:02.108,147434,16158,16804,83682,134135
2025-04-11 11:16:02.110,147442,16161,16813,83685,134142
2025-04-11 11:16:02.117,147439,16157,16813,83690,134159
2025-04-11 11:16:02.129,147439,16161,16816,83693,134146
2025-04-11 11:16:02.137,147450,16166,16818,83694,134145
2025-04-11 11:16:02.149,147433,16167,16818,83698,134161
2025-04-11 11:16:02.157,147455,16165,16824,83703,134144
2025-04-11 11:16:02.171,147444,16168,16826,83700,134147
2025-04-11 11:16:02.177,147446,16167,16828,83692,134142
2025-04-11 11:16:02.189,147436,16174,16829,83688,134159
2025-04-11 11:16:02.193,147436,16174,16829,83688,134159
2025-04-11 11:16:02.196,147441,16173,16832,83693,134147
2025-04-11 11:16:02.209,147448,16179,16836,83696,134164
2025-04-11 11:16:02.217,147443,16177,16839,83694,134142
2025-04-11 11:16:02.234,147443,16177,16839,83694,134142
2025-04-11 11:16:02.241,147454,16181,16842,83694,134160
2025-04-11 11:16:02.249,147462,16193,16843,83708,134169
2025-04-11 11:16:02.261,147470,16189,16848,83711,134155
2025-04-11 11:16:02.268,147464,16196,16854,83709,134147
2025-04-11 11:16:02.281,147467,16197,16851,83689,134142
2025-04-11 11:16:02.298,147461,16198,16857,83703,134134
2025-04-11 11:16:02.300,147469,16204,16862,83697,134167
2025-04-11 11:16:02.309,147463,16202,16864,83703,134165
2025-04-11 11:16:02.320,147473,16204,16866,83702,134167
2025-04-11 11:16:02.328,147468,16205,16869,83697,134163
2025-04-11 11:16:02.341,147470,16205,16868,83699,134141
2025-04-11 11:16:02.363,147467,16208,16866,83687,134146
2025-04-11 11:16:02.365,147436,16203,16863,83692,134143
2025-04-11 11:16:02.369,147429,16201,16852,83686,134126
2025-04-11 11:16:02.380,147412,16201,16849,83684,134119
2025-04-11 11:16:02.393,147394,16190,16835,83688,134113
2025-04-11 11:16:02.394,147394,16190,16835,83688,134113
2025-04-11 11:16:02.400,147370,16174,16813,83674,134081
2025-04-11 11:16:02.409,147361,16171,16807,83649,134078
2025-04-11 11:16:02.427,147341,16163,16801,83646,134051
2025-04-11 11:16:02.428,147347,16151,16793,83641,134051
2025-04-11 11:16:02.441,147346,16146,16788,83635,134045
2025-04-11 11:16:02.449,147327,16139,16784,83640,134039
2025-04-11 11:16:02.461,147320,16139,16782,83643,134054
2025-04-11 11:16:02.468,147324,16138,16782,83646,134024
2025-04-11 11:16:02.492,147320,16135,16779,83651,134051
2025-04-11 11:16:02.493,147342,16132,16781,83638,134048
2025-04-11 11:16:02.500,147346,16132,16779,83649,134042
2025-04-11 11:16:02.513,147335,16130,16782,83649,134047
2025-04-11 11:16:02.521,147342,16129,16784,83645,134041
2025-04-11 11:16:02.533,147354,16130,16790,83648,134026
2025-04-11 11:16:02.557,147357,16131,16792,83645,134029
2025-04-11 11:16:02.558,147366,16133,16794,83644,134034
2025-04-11 11:16:02.561,147359,16141,16802,83649,134055
2025-04-11 11:16:02.573,147371,16144,16804,83666,134047
2025-04-11 11:16:02.581,147384,16147,16811,83656,134064
2025-04-11 11:16:02.593,147374,16151,16816,83666,134062
2025-04-11 11:16:02.600,147405,16153,16819,83676,134073
2025-04-11 11:16:02.626,147397,16161,16819,83664,134083
2025-04-11 11:16:02.627,147396,16162,16824,83670,134078
2025-04-11 11:16:02.632,147406,16163,16822,83668,134087
2025-04-11 11:16:02.641,147390,16171,16832,83679,134085
2025-04-11 11:16:02.652,147403,16174,16828,83676,134111
2025-04-11 11:16:02.661,147403,16180,16835,83690,134102
2025-04-11 11:16:02.673,147433,16184,16842,83701,134090
2025-04-11 11:16:03.817,147441,16190,16848,83706,134121
2025-04-11 11:16:03.822,147424,16191,16848,83700,134101
2025-04-11 11:16:03.824,147426,16193,16853,83715,134106
2025-04-11 11:16:04.011,147423,16192,16850,83703,134110
2025-04-11 11:16:04.013,147430,16199,16858,83703,134108
2025-04-11 11:16:04.014,147429,16196,16862,83700,134124
2025-04-11 11:16:04.014,147442,16206,16867,83699,134124
2025-04-11 11:16:04.015,147450,16207,16868,83720,134138
2025-04-11 11:16:04.016,147459,16210,16875,83721,134117
2025-04-11 11:16:04.016,147452,16215,16883,83740,134116
2025-04-11 11:16:04.017,147479,16222,16883,83717,134154
2025-04-11 11:16:04.018,147473,16222,16888,83726,134127
2025-04-11 11:16:04.019,147465,16224,16891,83731,134145
2025-04-11 11:16:04.020,147476,16225,16897,83727,134131
2025-04-11 11:16:04.020,147492,16233,16901,83729,134145
2025-04-11 11:16:04.021,147493,16235,16910,83731,134153
2025-04-11 11:16:04.022,147481,16237,16910,83741,134136
2025-04-11 11:16:04.022,147505,16244,16919,83741,134148
2025-04-11 11:16:04.024,147495,16239,16918,83750,134179
2025-04-11 11:16:04.025,147505,16248,16923,83765,134169
2025-04-11 11:16:04.027,147497,16246,16925,83763,134193
2025-04-11 11:16:04.028,147517,16250,16931,83762,134169
2025-04-11 11:16:04.029,147526,16255,16934,83757,134169
2025-04-11 11:16:04.030,147527,16255,16939,83758,134169
2025-04-11 11:16:04.031,147539,16259,16941,83778,134183
2025-04-11 11:16:04.032,147548,16263,16946,83771,134202
2025-04-11 11:16:04.033,147540,16269,16952,83777,134193
2025-04-11 11:16:04.034,147560,16272,16955,83787,134192
2025-04-11 11:16:04.035,147563,16271,16959,83800,134205
2025-04-11 11:16:04.036,147562,16278,16960,83794,134196
2025-04-11 11:16:04.037,147557,16278,16964,83805,134221
2025-04-11 11:16:04.038,147573,16285,16967,83784,134185
2025-04-11 11:16:04.039,147560,16285,16965,83788,134205
2025-04-11 11:16:04.040,147563,16285,16970,83781,134206
2025-04-11 11:16:04.042,147554,16283,16970,83784,134211
2025-04-11 11:16:04.043,147568,16281,16978,83781,134203
2025-04-11 11:16:04.044,147552,16284,16975,83784,134216
2025-04-11 11:16:04.046,147554,16287,16972,83778,134191
2025-04-11 11:16:04.047,147535,16281,16969,83774,134200
2025-04-11 11:16:04.048,147514,16284,16965,83766,134178
2025-04-11 11:16:04.049,147508,16278,16952,83772,134180
2025-04-11 11:16:04.050,147492,16273,16947,83771,134171
2025-04-11 11:16:04.051,147479,16271,16934,83763,134160
2025-04-11 11:16:04.053,147467,16256,16926,83752,134155
2025-04-11 11:16:04.054,147479,16251,16922,83741,134139
2025-04-11 11:16:04.055,147439,16246,16914,83737,134135
2025-04-11 11:16:04.057,147439,16237,16905,83722,134112
2025-04-11 11:16:04.058,147436,16236,16905,83731,134123
2025-04-11 11:16:04.078,147428,16232,16900,83729,134097
2025-04-11 11:16:04.079,147440,16226,16897,83719,134083
2025-04-11 11:16:04.080,147445,16225,16897,83738,134106
2025-04-11 11:16:04.081,147445,16225,16897,83738,134106
2025-04-11 11:16:04.082,147422,16222,16894,83727,134100
2025-04-11 11:16:04.084,147423,16219,16894,83724,134088
2025-04-11 11:16:04.085,147434,16219,16901,83723,134089
2025-04-11 11:16:04.086,147431,16222,16904,83734,134097
2025-04-11 11:16:04.087,147448,16223,16905,83731,134116
2025-04-11 11:16:04.089,147470,16224,16910,83730,134118
2025-04-11 11:16:04.090,147460,16223,16914,83735,134108
2025-04-11 11:16:04.092,147476,16228,16918,83743,134122
2025-04-11 11:16:04.093,147483,16228,16921,83745,134121
2025-04-11 11:16:04.094,147465,16232,16924,83752,134140
2025-04-11 11:16:04.094,147469,16232,16926,83750,134143
2025-04-11 11:16:04.095,147463,16234,16929,83743,134147
2025-04-11 11:16:04.096,147478,16236,16932,83759,134145
2025-04-11 11:16:04.098,147486,16243,16930,83759,134139
2025-04-11 11:16:04.099,147494,16243,16930,83760,134155
2025-04-11 11:16:04.100,147497,16239,16936,83762,134155
2025-04-11 11:16:04.101,147500,16246,16938,83764,134127
2025-04-11 11:16:04.102,147499,16243,16943,83775,134150
2025-04-11 11:16:04.103,147506,16248,16946,83767,134154
2025-04-11 11:16:04.104,147487,16248,16946,83786,134152
2025-04-11 11:16:04.105,147497,16252,16946,83777,134180
2025-04-11 11:16:04.107,147493,16251,16945,83773,134154
2025-04-11 11:16:04.108,147498,16251,16948,83772,134154
2025-04-11 11:16:04.109,147498,16252,16947,83778,134155
2025-04-11 11:16:04.110,147514,16251,16953,83768,134156
2025-04-11 11:16:04.111,147505,16251,16959,83771,134161
2025-04-11 11:16:04.112,147511,16258,16959,83776,134175
2025-04-11 11:16:04.113,147520,16257,16960,83784,134178
2025-04-11 11:16:04.114,147536,16258,16966,83793,134156
2025-04-11 11:16:04.115,147535,16261,16969,83796,134180
2025-04-11 11:16:04.116,147542,16262,16972,83798,134184
2025-04-11 11:16:04.117,147555,16267,16975,83797,134178
2025-04-11 11:16:04.118,147540,16265,16976,83801,134190
2025-04-11 11:16:04.119,147567,16270,16982,83787,134208
2025-04-11 11:16:04.120,147576,16275,16984,83811,134203
2025-04-11 11:16:04.121,147563,16279,16989,83796,134196
2025-04-11 11:16:04.121,147563,16278,16995,83815,134204
2025-04-11 11:16:04.122,147572,16280,16996,83809,134216
2025-04-11 11:16:04.123,147587,16287,17000,83818,134201
2025-04-11 11:16:04.124,147588,16290,17004,83818,134219
2025-04-11 11:16:04.125,147591,16291,17010,83823,134233
2025-04-11 11:16:04.125,147588,16289,17009,83834,134233
2025-04-11 11:16:04.126,147610,16295,17015,83829,134231
2025-04-11 11:16:04.143,147593,16297,17012,83837,134224
2025-04-11 11:16:04.144,147601,16304,17021,83844,134243
2025-04-11 11:16:04.146,147604,16302,17026,83831,134253
2025-04-11 11:16:04.147,147617,16306,17020,83830,134246
2025-04-11 11:16:04.148,147609,16307,17028,83830,134242
2025-04-11 11:16:04.149,147611,16313,17032,83834,134260
2025-04-11 11:16:04.151,147617,16309,17033,83832,134249
2025-04-11 11:16:04.152,147622,16317,17036,83831,134243
2025-04-11 11:16:04.154,147599,16315,17031,83821,134252
2025-04-11 11:16:04.155,147605,16313,17032,83821,134234
2025-04-11 11:16:04.156,147586,16312,17032,83818,134239
2025-04-11 11:16:04.157,147583,16315,17024,83837,134218
2025-04-11 11:16:04.157,147562,16314,17023,83828,134220
2025-04-11 11:16:04.159,147560,16308,17014,83816,134224
2025-04-11 11:16:04.162,147542,16300,17002,83808,134204
2025-04-11 11:16:04.163,147527,16293,16999,83813,134207
2025-04-11 11:16:04.164,147531,16291,16992,83804,134189
2025-04-11 11:16:04.165,147528,16284,16984,83787,134167
2025-04-11 11:16:04.166,147531,16280,16984,83802,134168
2025-04-11 11:16:04.166,147518,16271,16981,83797,134177
2025-04-11 11:16:04.167,147526,16272,16980,83800,134182
2025-04-11 11:16:04.168,147516,16268,16983,83802,134166
2025-04-11 11:16:04.169,147518,16266,16977,83802,134201
2025-04-11 11:16:04.170,147531,16261,16978,83798,134184
2025-04-11 11:16:04.172,147528,16262,16982,83803,134195
2025-04-11 11:16:04.174,147523,16262,16978,83796,134185
2025-04-11 11:16:04.175,147528,16261,16983,83807,134175
2025-04-11 11:16:04.175,147520,16261,16987,83806,134203
2025-04-11 11:16:04.176,147550,16263,16989,83821,134182
2025-04-11 11:16:04.177,147543,16260,16990,83821,134213
2025-04-11 11:16:04.178,147569,16268,16998,83830,134211
2025-04-11 11:16:04.179,147573,16270,17003,83845,134214
2025-04-11 11:16:04.180,147562,16273,17005,83845,134227
2025-04-11 11:16:04.181,147579,16277,17005,83844,134225
2025-04-11 11:16:04.182,147580,16276,17011,83846,134246
2025-04-11 11:16:04.183,147573,16275,17013,83839,134245
2025-04-11 11:16:04.185,147581,16278,17017,83844,134253
2025-04-11 11:16:04.186,147581,16278,17017,83844,134253
2025-04-11 11:16:04.187,147587,16284,17013,83832,134221
2025-04-11 11:16:04.188,147588,16282,17019,83846,134240
2025-04-11 11:16:04.189,147573,16286,17023,83843,134263
2025-04-11 11:16:04.190,147583,16286,17023,83851,134235
2025-04-11 11:16:04.191,147572,16287,17026,83857,134246
2025-04-11 11:16:04.208,147586,16295,17029,83844,134263
2025-04-11 11:16:04.210,147593,16288,17026,83860,134254
2025-04-11 11:16:04.211,147602,16290,17032,83851,134255
2025-04-11 11:16:04.212,147611,16288,17031,83862,134260
2025-04-11 11:16:04.213,147592,16292,17031,83854,134255
2025-04-11 11:16:04.214,147597,16294,17031,83866,134265
2025-04-11 11:16:04.215,147602,16296,17037,83869,134268
2025-04-11 11:16:04.216,147592,16296,17046,83868,134266
2025-04-11 11:16:04.218,147613,16303,17044,83868,134291
2025-04-11 11:16:04.219,147618,16306,17051,83870,134268
2025-04-11 11:16:04.220,147619,16307,17054,83872,134279
2025-04-11 11:16:04.221,147622,16304,17059,83879,134288
2025-04-11 11:16:04.222,147633,16307,17062,83898,134287
2025-04-11 11:16:04.223,147627,16312,17066,83888,134288
2025-04-11 11:16:04.224,147627,16316,17068,83901,134303
2025-04-11 11:16:04.225,147657,16312,17073,83910,134305
2025-04-11 11:16:04.226,147650,16321,17078,83911,134321
2025-04-11 11:16:04.237,147662,16329,17081,83906,134315
2025-04-11 11:16:04.243,147659,16326,17088,83919,134326
2025-04-11 11:16:04.256,147653,16329,17091,83930,134317
2025-04-11 11:16:04.272,147660,16330,17093,83928,134324
2025-04-11 11:16:04.276,147655,16337,17099,83939,134381
2025-04-11 11:16:04.284,147660,16336,17100,83948,134354
2025-04-11 11:16:04.295,147680,16341,17107,83937,134366
2025-04-11 11:16:04.304,147684,16344,17108,83941,134367
2025-04-11 11:16:04.316,147678,16347,17104,83937,134358
2025-04-11 11:16:04.336,147682,16346,17109,83950,134361
2025-04-11 11:16:04.337,147675,16349,17109,83924,134358
2025-04-11 11:16:04.344,147673,16350,17116,83927,134344
2025-04-11 11:16:04.355,147679,16355,17114,83942,134363
2025-04-11 11:16:04.363,147679,16353,17121,83938,134354
2025-04-11 11:16:04.376,147694,16353,17118,83942,134369
2025-04-11 11:16:04.384,147698,16362,17126,83940,134368
2025-04-11 11:16:04.404,147690,16355,17127,83951,134365
2025-04-11 11:16:04.405,147690,16364,17127,83952,134392
2025-04-11 11:16:04.416,147692,16362,17128,83947,134374
2025-04-11 11:16:04.423,147682,16360,17121,83947,134375
2025-04-11 11:16:04.435,147674,16360,17118,83941,134352
2025-04-11 11:16:04.443,147659,16361,17112,83936,134373
2025-04-11 11:16:04.469,147663,16359,17103,83921,134364
2025-04-11 11:16:04.470,147632,16349,17098,83942,134360
2025-04-11 11:16:04.477,147644,16347,17092,83939,134342
2025-04-11 11:16:04.487,147623,16341,17086,83942,134345
2025-04-11 11:16:04.496,147621,16336,17080,83928,134331
2025-04-11 11:16:04.508,147618,16330,17075,83926,134332
2025-04-11 11:16:04.516,147616,16320,17068,83920,134334
2025-04-11 11:16:04.532,147619,16319,17066,83922,134346
2025-04-11 11:16:04.535,147613,16309,17063,83914,134332
2025-04-11 11:16:04.548,147606,16312,17065,83918,134319
2025-04-11 11:16:04.555,147615,16302,17063,83917,134321
2025-04-11 11:16:04.567,147624,16300,17067,83922,134303
2025-04-11 11:16:04.575,147621,16296,17062,83911,134312
2025-04-11 11:16:04.600,147616,16294,17061,83912,134305
2025-04-11 11:16:04.601,147626,16294,17063,83908,134317
2025-04-11 11:16:04.608,147626,16295,17066,83913,134308
2025-04-11 11:16:04.616,147637,16299,17069,83913,134325
2025-04-11 11:16:04.627,147654,16295,17076,83916,134318
2025-04-11 11:16:04.636,147668,16295,17080,83927,134333
2025-04-11 11:16:04.647,147657,16297,17080,83922,134330
2025-04-11 11:16:04.667,147656,16299,17083,83923,134344
2025-04-11 11:16:04.669,147669,16301,17082,83923,134348
2025-04-11 11:16:04.675,147672,16304,17087,83928,134339
2025-04-11 11:16:04.688,147650,16308,17090,83938,134335
2025-04-11 11:16:04.700,147672,16306,17089,83932,134336
2025-04-11 11:16:04.707,147680,16307,17090,83941,134349
2025-04-11 11:16:04.731,147668,16308,17096,83928,134359
2025-04-11 11:16:04.732,147673,16308,17094,83933,134355
2025-04-11 11:16:04.740,147657,16311,17094,83946,134364
2025-04-11 11:16:04.747,147675,16314,17095,83939,134375
2025-04-11 11:16:04.759,147670,16309,17097,83942,134351
2025-04-11 11:16:04.767,147690,16310,17100,83944,134371
2025-04-11 11:16:04.779,147682,16316,17100,83944,134376
2025-04-11 11:16:04.795,147678,16314,17102,83953,134360
2025-04-11 11:16:04.799,147704,16315,17103,83954,134383
2025-04-11 11:16:04.812,147713,16319,17104,83964,134391
2025-04-11 11:16:04.813,147713,16319,17104,83964,134391
2025-04-11 11:16:04.819,147701,16319,17114,83957,134398
2025-04-11 11:16:04.828,147707,16322,17113,83963,134390
2025-04-11 11:16:04.839,147706,16325,17114,83969,134388
2025-04-11 11:16:04.860,147723,16325,17114,83958,134413
2025-04-11 11:16:04.861,147718,16323,17122,83954,134392
2025-04-11 11:16:04.868,147724,16328,17125,83957,134396
2025-04-11 11:16:04.879,147722,16330,17124,83963,134397
2025-04-11 11:16:04.887,147722,16333,17126,83972,134420
2025-04-11 11:16:04.899,147738,16338,17129,83961,134410
2025-04-11 11:16:04.908,147735,16338,17133,83971,134415
2025-04-11 11:16:04.924,147730,16338,17134,83963,134405
2025-04-11 11:16:04.928,147747,16345,17140,83980,134421
2025-04-11 11:16:04.940,147750,16348,17140,83990,134425
2025-04-11 11:16:04.951,147743,16345,17142,83986,134444
2025-04-11 11:16:04.960,147750,16349,17147,83982,134430
2025-04-11 11:16:04.971,147761,16349,17150,83984,134413
2025-04-11 11:16:04.987,147755,16356,17151,83982,134440
2025-04-11 11:16:04.991,147751,16357,17159,83981,134438
2025-04-11 11:16:05.000,147778,16355,17160,83969,134434
2025-04-11 11:16:05.011,147775,16356,17161,83979,134448
2025-04-11 11:16:05.019,147782,16358,17165,83980,134448
2025-04-11 11:16:05.032,147765,16363,17166,83978,134454
2025-04-11 11:16:05.050,147756,16365,17171,83981,134457
2025-04-11 11:16:05.052,147778,16365,17170,83983,134449
2025-04-11 11:16:05.060,147793,16367,17177,83991,134470
2025-04-11 11:16:05.071,147782,16370,17181,83988,134462
2025-04-11 11:16:05.079,147772,16373,17179,83995,134468
2025-04-11 11:16:05.092,147786,16376,17185,83993,134483
2025-04-11 11:16:05.099,147796,16375,17191,83984,134468
2025-04-11 11:16:05.114,147775,16374,17180,83991,134446
2025-04-11 11:16:05.119,147779,16378,17183,83992,134471
2025-04-11 11:16:05.132,147769,16374,17178,83994,134473
2025-04-11 11:16:05.139,147763,16373,17177,83989,134455
2025-04-11 11:16:05.151,147763,16370,17167,83994,134459
2025-04-11 11:16:05.159,147745,16363,17160,83973,134453
2025-04-11 11:16:05.178,147727,16364,17152,83963,134459
2025-04-11 11:16:05.180,147710,16354,17150,83966,134430
2025-04-11 11:16:05.191,147728,16354,17145,83953,134419
2025-04-11 11:16:05.203,147730,16343,17139,83968,134419
2025-04-11 11:16:05.210,147732,16342,17132,83966,134426
2025-04-11 11:16:05.223,147720,16337,17135,83960,134403
2025-04-11 11:16:05.241,147716,16334,17138,83955,134420
2025-04-11 11:16:05.243,147715,16330,17138,83964,134416
2025-04-11 11:16:05.251,147723,16323,17131,83957,134414
2025-04-11 11:16:05.263,147730,16327,17134,83956,134421
2025-04-11 11:16:05.271,147724,16322,17132,83950,134416
2025-04-11 11:16:05.283,147729,16321,17130,83953,134425
2025-04-11 11:16:05.308,147737,16320,17135,83946,134417
2025-04-11 11:16:05.310,147746,16319,17139,83943,134427
2025-04-11 11:16:05.311,147729,16318,17140,83971,134429
2025-04-11 11:16:05.323,147746,16328,17143,83954,134423
2025-04-11 11:16:05.331,147725,16325,17142,83976,134422
2025-04-11 11:16:05.343,147735,16325,17147,83963,134436
2025-04-11 11:16:05.351,147742,16322,17143,83969,134442
2025-04-11 11:16:05.373,147748,16332,17150,83957,134442
2025-04-11 11:16:05.374,147746,16332,17148,83964,134417
2025-04-11 11:16:05.383,147752,16332,17143,83971,134421
2025-04-11 11:16:05.391,147748,16336,17152,83956,134419
2025-04-11 11:16:05.403,147764,16341,17147,83953,134440
2025-04-11 11:16:05.415,147756,16345,17147,83956,134428
2025-04-11 11:16:05.437,147731,16347,17152,83950,134420
2025-04-11 11:16:05.438,147724,16346,17147,83943,134426
2025-04-11 11:16:05.443,147725,16356,17149,83943,134439
2025-04-11 11:16:05.455,147722,16355,17148,83946,134419
2025-04-11 11:16:05.463,147737,16356,17150,83948,134441
2025-04-11 11:16:05.475,147745,16362,17151,83951,134421
2025-04-11 11:16:05.483,147737,16365,17154,83950,134417
2025-04-11 11:16:05.499,147744,16370,17159,83951,134420
2025-04-11 11:16:05.503,147744,16366,17154,83951,134451
2025-04-11 11:16:05.516,147747,16370,17160,83949,134439
2025-04-11 11:16:05.523,147750,16378,17159,83957,134439
2025-04-11 11:16:05.535,147755,16372,17161,83954,134470
2025-04-11 11:16:05.542,147766,16377,17166,83957,134447
2025-04-11 11:16:05.563,147760,16378,17171,83953,134452
2025-04-11 11:16:05.565,147763,16387,17173,83955,134447
2025-04-11 11:16:05.575,147765,16385,17177,83969,134468
2025-04-11 11:16:05.582,147789,16389,17178,83963,134476
2025-04-11 11:16:05.595,147790,16390,17184,83986,134470
2025-04-11 11:16:05.603,147809,16388,17188,83980,134482
2025-04-11 11:16:05.627,147809,16390,17190,83979,134488
2025-04-11 11:16:05.628,147809,16390,17190,83979,134488
2025-04-11 11:16:05.629,147807,16394,17197,83981,134512
2025-04-11 11:16:05.636,147817,16396,17199,83986,134505
2025-04-11 11:16:05.643,147804,16398,17205,84002,134496
2025-04-11 11:16:05.655,147821,16400,17204,83992,134489
2025-04-11 11:16:05.663,147821,16402,17209,83997,134497
2025-04-11 11:16:05.675,147843,16404,17211,84003,134522
2025-04-11 11:16:05.691,147820,16407,17211,84001,134526
2025-04-11 11:16:05.695,147827,16404,17219,84009,134526
2025-04-11 11:16:05.707,147827,16412,17218,84009,134533
2025-04-11 11:16:05.715,147851,16409,17222,84004,134515
2025-04-11 11:16:05.727,147857,16414,17222,84010,134531
2025-04-11 11:16:05.735,147852,16415,17228,84016,134530
2025-04-11 11:16:05.755,147856,16414,17231,84015,134521
2025-04-11 11:16:05.756,147855,16417,17235,84015,134546
2025-04-11 11:16:05.766,147853,16423,17235,84025,134536
2025-04-11 11:16:05.775,147868,16422,17236,84012,134554
2025-04-11 11:16:05.787,147857,16421,17235,84005,134548
2025-04-11 11:16:05.795,147835,16426,17233,84009,134564
2025-04-11 11:16:05.818,147845,16423,17230,84004,134550
2025-04-11 11:16:05.819,147807,16420,17223,83988,134533
2025-04-11 11:16:05.828,147822,16419,17221,83990,134534
2025-04-11 11:16:05.835,147818,16420,17215,83990,134511
2025-04-11 11:16:05.847,147790,16418,17206,83985,134508
2025-04-11 11:16:05.855,147774,16409,17203,83975,134500
2025-04-11 11:16:05.867,147781,16407,17201,83987,134492
2025-04-11 11:16:05.884,147764,16404,17194,83978,134506
2025-04-11 11:16:05.887,147776,16399,17191,83966,134501
2025-04-11 11:16:05.895,147772,16392,17186,83973,134496
2025-04-11 11:16:05.907,147767,16387,17179,83958,134481
2025-04-11 11:16:05.915,147766,16388,17175,83957,134491
2025-04-11 11:16:05.927,147763,16380,17178,83969,134478
2025-04-11 11:16:05.949,147770,16374,17179,83957,134468
2025-04-11 11:16:05.950,147762,16372,17177,83953,134478
2025-04-11 11:16:05.959,147769,16371,17178,83948,134474
2025-04-11 11:16:05.967,147771,16370,17182,83947,134495
2025-04-11 11:16:05.979,147771,16373,17181,83949,134488
2025-04-11 11:16:05.986,147774,16370,17180,83948,134477
2025-04-11 11:16:06.012,147797,16367,17185,83959,134488
2025-04-11 11:16:06.013,147794,16368,17186,83970,134491
2025-04-11 11:16:06.018,147798,16374,17187,83957,134495
2025-04-11 11:16:06.027,147803,16374,17191,83964,134506
2025-04-11 11:16:06.039,147820,16376,17194,83966,134519
2025-04-11 11:16:06.047,147809,16379,17197,83977,134514
2025-04-11 11:16:06.059,147815,16381,17198,83987,134525
2025-04-11 11:16:06.075,147817,16383,17198,83991,134526
2025-04-11 11:16:06.079,147811,16389,17204,83968,134521
2025-04-11 11:16:06.087,147805,16385,17198,83985,134529
2025-04-11 11:16:06.098,147829,16386,17207,83978,134554
2025-04-11 11:16:06.107,147829,16387,17207,83979,134546
2025-04-11 11:16:06.119,147811,16387,17204,83984,134545
2025-04-11 11:16:06.139,147831,16393,17209,83983,134556
2025-04-11 11:16:06.140,147836,16393,17208,83994,134531
2025-04-11 11:16:06.148,147831,16397,17212,83987,134561
2025-04-11 11:16:06.159,147834,16399,17212,83994,134562
2025-04-11 11:16:06.167,147833,16397,17214,83997,134568
2025-04-11 11:16:06.178,147846,16400,17219,83990,134566
2025-04-11 11:16:06.203,147868,16402,17221,84002,134564
2025-04-11 11:16:06.205,147848,16401,17217,83999,134580
2025-04-11 11:16:06.210,147849,16401,17220,83991,134547
2025-04-11 11:16:06.218,147851,16398,17225,84004,134576
2025-04-11 11:16:06.230,147847,16402,17221,83994,134593
2025-04-11 11:16:06.239,147871,16404,17224,84002,134582
2025-04-11 11:16:06.250,147849,16409,17231,84011,134582
2025-04-11 11:16:06.268,147873,16405,17231,84011,134589
2025-04-11 11:16:06.271,147869,16409,17238,84011,134614
2025-04-11 11:16:06.278,147885,16416,17240,84024,134597
2025-04-11 11:16:06.290,147880,16412,17242,84004,134596
2025-04-11 11:16:06.299,147884,16415,17244,84013,134604
2025-04-11 11:16:06.310,147868,16415,17238,84015,134612
2025-04-11 11:16:06.333,147871,16416,17241,84016,134600
2025-04-11 11:16:06.334,147874,16416,17247,84022,134594
2025-04-11 11:16:06.339,147895,16419,17246,84019,134600
2025-04-11 11:16:06.351,147876,16415,17250,84020,134610
2025-04-11 11:16:06.358,147893,16422,17255,84009,134606
2025-04-11 11:16:06.371,147898,16423,17256,84010,134623
2025-04-11 11:16:06.378,147896,16424,17259,84025,134611
2025-04-11 11:16:06.397,147895,16428,17260,84017,134621
2025-04-11 11:16:06.398,147913,16427,17257,84023,134611
2025-04-11 11:16:06.411,147890,16428,17259,84014,134620
2025-04-11 11:16:06.422,147891,16432,17257,84017,134607
2025-04-11 11:16:06.427,147891,16432,17257,84017,134607
2025-04-11 11:16:06.431,147895,16430,17265,84019,134615
2025-04-11 11:16:06.442,147896,16431,17263,84016,134629
2025-04-11 11:16:06.460,147878,16432,17263,84020,134620
2025-04-11 11:16:06.463,147870,16434,17256,84005,134610
2025-04-11 11:16:06.471,147863,16431,17254,83998,134621
2025-04-11 11:16:06.482,147838,16427,17249,83988,134608
2025-04-11 11:16:06.491,147848,16426,17242,83984,134572
2025-04-11 11:16:06.503,147834,16420,17234,83980,134586
2025-04-11 11:16:06.524,147813,16418,17228,83981,134578
2025-04-11 11:16:06.525,147823,16412,17222,83976,134562
2025-04-11 11:16:06.531,147810,16408,17217,83974,134581
2025-04-11 11:16:06.542,147812,16404,17211,83965,134576
2025-04-11 11:16:06.551,147820,16401,17204,83953,134551
2025-04-11 11:16:06.563,147800,16393,17205,83957,134568
2025-04-11 11:16:06.571,147806,16390,17198,83966,134542
2025-04-11 11:16:06.588,147800,16386,17201,83958,134543
2025-04-11 11:16:06.590,147796,16387,17196,83954,134559
2025-04-11 11:16:06.603,147784,16378,17197,83960,134547
2025-04-11 11:16:06.611,147799,16377,17197,83967,134545
2025-04-11 11:16:06.622,147793,16376,17195,83955,134548
2025-04-11 11:16:06.631,147817,16375,17196,83945,134548
2025-04-11 11:16:06.652,147810,16377,17195,83955,134557
2025-04-11 11:16:06.654,147801,16377,17199,83957,134543
2025-04-11 11:16:06.663,147815,16377,17199,83953,134567
2025-04-11 11:16:06.675,147827,16377,17203,83952,134569
2025-04-11 11:16:06.683,147817,16380,17202,83961,134570
2025-04-11 11:16:06.694,147834,16384,17204,83966,134569
2025-04-11 11:16:06.717,147828,16382,17208,83974,134579
2025-04-11 11:16:06.718,147820,16384,17211,83962,134579
2025-04-11 11:16:06.722,147822,16383,17205,83972,134578
2025-04-11 11:16:06.734,147819,16387,17208,83971,134604
2025-04-11 11:16:06.743,147815,16387,17209,83954,134567
2025-04-11 11:16:06.755,147817,16384,17206,83971,134588
2025-04-11 11:16:06.762,147815,16383,17203,83961,134568
2025-04-11 11:16:06.781,147823,16385,17201,83957,134566
2025-04-11 11:16:06.783,147824,16386,17207,83942,134570
2025-04-11 11:16:06.794,147814,16387,17203,83956,134574
2025-04-11 11:16:06.802,147807,16387,17202,83963,134569
2025-04-11 11:16:06.815,147806,16382,17200,83953,134573
2025-04-11 11:16:06.822,147812,16378,17204,83957,134568
2025-04-11 11:16:06.844,147811,16385,17200,83961,134567
2025-04-11 11:16:06.846,147808,16383,17201,83953,134577
2025-04-11 11:16:06.855,147796,16379,17193,83958,134568
2025-04-11 11:16:06.862,147800,16375,17204,83947,134571
2025-04-11 11:16:06.874,147824,16372,17200,83948,134578
2025-04-11 11:16:06.882,147806,16379,17198,83943,134568
2025-04-11 11:16:06.910,147812,16378,17201,83943,134560
2025-04-11 11:16:06.911,147797,16377,17207,83939,134569
2025-04-11 11:16:06.914,147804,16376,17208,83948,134583
2025-04-11 11:16:06.926,147817,16381,17207,83951,134566
2025-04-11 11:16:06.934,147806,16373,17207,83942,134595
2025-04-11 11:16:06.947,147817,16383,17208,83945,134582
2025-04-11 11:16:06.954,147812,16382,17211,83953,134584
2025-04-11 11:16:06.973,147825,16384,17213,83956,134609
2025-04-11 11:16:06.975,147811,16386,17217,83956,134602
2025-04-11 11:16:06.986,147806,16384,17214,83956,134587
2025-04-11 11:16:06.994,147817,16389,17219,83954,134585
2025-04-11 11:16:07.006,147811,16389,17218,83971,134605
2025-04-11 11:16:07.014,147822,16387,17220,83947,134590
2025-04-11 11:16:07.043,147837,16393,17223,83958,134592
2025-04-11 11:16:07.044,147819,16386,17221,83956,134586
2025-04-11 11:16:07.046,147822,16391,17222,83949,134593
2025-04-11 11:16:07.055,147812,16396,17224,83957,134594
2025-04-11 11:16:07.066,147836,16393,17225,83964,134607
2025-04-11 11:16:07.074,147831,16397,17223,83940,134589
2025-04-11 11:16:07.086,147809,16394,17221,83952,134587
2025-04-11 11:16:07.106,147785,16394,17226,83940,134586
2025-04-11 11:16:07.108,147797,16395,17217,83938,134580
2025-04-11 11:16:07.115,147786,16388,17213,83925,134564
2025-04-11 11:16:07.126,147788,16386,17210,83927,134553
2025-04-11 11:16:07.135,147761,16385,17208,83899,134545
2025-04-11 11:16:07.146,147745,16383,17197,83898,134531
2025-04-11 11:16:07.172,147739,16377,17188,83903,134535
2025-04-11 11:16:07.174,147722,16369,17185,83910,134526
2025-04-11 11:16:07.178,147712,16362,17173,83902,134541
2025-04-11 11:16:07.186,147716,16360,17170,83898,134516
2025-04-11 11:16:07.198,147706,16352,17167,83881,134510
2025-04-11 11:16:07.206,147694,16343,17157,83876,134500
2025-04-11 11:16:07.218,147698,16335,17155,83877,134496
2025-04-11 11:16:07.237,147701,16333,17151,83880,134511
2025-04-11 11:16:07.238,147701,16333,17151,83880,134511
2025-04-11 11:16:07.239,147684,16322,17143,83871,134490
2025-04-11 11:16:07.247,147701,16325,17149,83870,134497
2025-04-11 11:16:07.257,147695,16322,17147,83870,134497
2025-04-11 11:16:07.266,147705,16322,17146,83867,134512
2025-04-11 11:16:07.278,147681,16317,17144,83871,134490
2025-04-11 11:16:07.285,147716,16316,17151,83866,134493
2025-04-11 11:16:07.302,147712,16321,17148,83877,134519
2025-04-11 11:16:07.306,147713,16320,17154,83888,134517
2025-04-11 11:16:07.319,147732,16320,17155,83879,134507
2025-04-11 11:16:07.326,147735,16321,17156,83886,134535
2025-04-11 11:16:07.338,147729,16322,17155,83878,134521
2025-04-11 11:16:07.346,147734,16322,17157,83885,134510
2025-04-11 11:16:07.366,147749,16326,17155,83887,134534
2025-04-11 11:16:07.367,147725,16322,17159,83885,134523
2025-04-11 11:16:07.378,147724,16326,17162,83876,134525
2025-04-11 11:16:07.386,147734,16320,17157,83866,134516
2025-04-11 11:16:07.398,147736,16322,17152,83871,134526
2025-04-11 11:16:07.410,147711,16325,17154,83871,134529
2025-04-11 11:16:07.430,147732,16327,17157,83879,134526
2025-04-11 11:16:07.432,147730,16327,17159,83880,134522
2025-04-11 11:16:07.437,147730,16330,17155,83883,134563
2025-04-11 11:16:07.449,147730,16329,17161,83884,134549
2025-04-11 11:16:07.458,147735,16331,17152,83884,134537
2025-04-11 11:16:07.470,147730,16330,17155,83881,134529
2025-04-11 11:16:07.478,147730,16323,17151,83885,134536
2025-04-11 11:16:07.494,147713,16323,17154,83872,134524
2025-04-11 11:16:07.498,147720,16324,17154,83864,134523
2025-04-11 11:16:07.510,147728,16327,17155,83871,134520
2025-04-11 11:16:07.518,147726,16332,17155,83865,134540
2025-04-11 11:16:07.530,147729,16330,17157,83871,134535
2025-04-11 11:16:07.537,147751,16329,17165,83872,134549
2025-04-11 11:16:07.559,147744,16327,17161,83878,134541
2025-04-11 11:16:07.560,147756,16335,17161,83882,134560
2025-04-11 11:16:07.569,147763,16332,17167,83887,134567
2025-04-11 11:16:07.578,147752,16333,17168,83890,134570
2025-04-11 11:16:07.590,147758,16338,17171,83884,134552
2025-04-11 11:16:07.598,147768,16337,17173,83894,134558
2025-04-11 11:16:07.622,147756,16337,17176,83886,134568
2025-04-11 11:16:07.623,147764,16339,17178,83891,134569
2025-04-11 11:16:07.631,147796,16347,17179,83897,134568
2025-04-11 11:16:07.638,147775,16344,17184,83898,134578
2025-04-11 11:16:07.650,147767,16344,17187,83888,134594
2025-04-11 11:16:07.662,147775,16351,17188,83894,134569
2025-04-11 11:16:07.669,147782,16357,17189,83901,134592
2025-04-11 11:16:07.687,147782,16354,17190,83898,134579
2025-04-11 11:16:07.689,147777,16357,17191,83898,134596
2025-04-11 11:16:07.702,147780,16353,17190,83883,134566
2025-04-11 11:16:07.710,147760,16354,17189,83893,134576
2025-04-11 11:16:07.722,147757,16357,17187,83897,134572
2025-04-11 11:16:07.729,147759,16354,17181,83882,134580
2025-04-11 11:16:07.752,147734,16351,17173,83877,134577
2025-04-11 11:16:07.753,147728,16349,17168,83878,134575
2025-04-11 11:16:07.762,147710,16347,17165,83877,134566
2025-04-11 11:16:07.769,147714,16342,17157,83874,134563
2025-04-11 11:16:07.781,147711,16335,17150,83875,134565
2025-04-11 11:16:07.790,147707,16332,17147,83864,134536
2025-04-11 11:16:07.816,147694,16326,17139,83848,134530
2025-04-11 11:16:07.818,147704,16323,17133,83854,134538
2025-04-11 11:16:07.822,147689,16314,17125,83852,134516
2025-04-11 11:16:07.829,147688,16309,17123,83844,134515
2025-04-11 11:16:07.842,147697,16299,17121,83848,134514
2025-04-11 11:16:07.850,147704,16304,17119,83843,134522
2025-04-11 11:16:07.862,147685,16298,17120,83849,134530
2025-04-11 11:16:07.881,147687,16296,17121,83831,134514
2025-04-11 11:16:07.883,147699,16296,17124,83830,134531
2025-04-11 11:16:07.890,147698,16294,17122,83832,134518
2025-04-11 11:16:07.902,147708,16298,17121,83844,134533
2025-04-11 11:16:07.914,147712,16295,17126,83833,134536
2025-04-11 11:16:07.922,147712,16298,17125,83847,134539
2025-04-11 11:16:07.945,147728,16297,17133,83870,134555
2025-04-11 11:16:07.946,147740,16302,17137,83866,134545
2025-04-11 11:16:07.954,147747,16309,17139,83853,134563
2025-04-11 11:16:07.962,147731,16310,17141,83862,134572
2025-04-11 11:16:07.974,147752,16313,17140,83866,134569
2025-04-11 11:16:07.981,147743,16314,17145,83869,134566
2025-04-11 11:16:08.009,147736,16319,17140,83876,134569
2025-04-11 11:16:08.010,147757,16321,17142,83870,134572
2025-04-11 11:16:08.014,147742,16318,17146,83877,134569
2025-04-11 11:16:08.021,147768,16321,17147,83862,134581
2025-04-11 11:16:08.034,147747,16327,17147,83882,134586
2025-04-11 11:16:08.042,147770,16328,17144,83868,134602
2025-04-11 11:16:08.054,147753,16328,17150,83882,134601
2025-04-11 11:16:08.077,147757,16330,17150,83878,134592
2025-04-11 11:16:08.078,147763,16329,17150,83879,134594
2025-04-11 11:16:08.081,147764,16332,17151,83887,134600
2025-04-11 11:16:08.094,147761,16330,17152,83884,134585
2025-04-11 11:16:08.102,147772,16330,17152,83887,134608
2025-04-11 11:16:08.114,147765,16332,17151,83891,134575
2025-04-11 11:16:08.122,147773,16330,17153,83889,134590
2025-04-11 11:16:08.146,147774,16328,17156,83888,134597
2025-04-11 11:16:08.148,147775,16339,17160,83878,134593
2025-04-11 11:16:08.154,147779,16338,17162,83890,134611
2025-04-11 11:16:08.166,147771,16341,17166,83907,134613
2025-04-11 11:16:08.174,147782,16342,17167,83899,134617
2025-04-11 11:16:08.186,147785,16341,17168,83902,134613
2025-04-11 11:16:08.194,147784,16339,17172,83903,134607
2025-04-11 11:16:08.218,147790,16347,17170,83909,134621
2025-04-11 11:16:08.220,147798,16345,17177,83911,134632
2025-04-11 11:16:08.226,147800,16347,17176,83910,134621
2025-04-11 11:16:08.238,147817,16350,17178,83912,134639
2025-04-11 11:16:08.240,147817,16350,17178,83912,134639
2025-04-11 11:16:08.245,147804,16353,17181,83912,134635
2025-04-11 11:16:08.255,147800,16351,17182,83904,134642
2025-04-11 11:16:08.266,147822,16352,17185,83911,134653
2025-04-11 11:16:08.290,147820,16354,17182,83925,134648
2025-04-11 11:16:08.292,147817,16357,17190,83914,134644
2025-04-11 11:16:08.294,147800,16353,17186,83909,134643
2025-04-11 11:16:08.306,147815,16361,17186,83912,134645
2025-04-11 11:16:08.314,147794,16356,17184,83915,134642
2025-04-11 11:16:08.326,147781,16357,17178,83915,134637
2025-04-11 11:16:08.333,147777,16355,17173,83907,134633
2025-04-11 11:16:08.361,147751,16356,17163,83893,134621
2025-04-11 11:16:08.362,147748,16346,17163,83885,134620
2025-04-11 11:16:08.365,147729,16343,17150,83874,134613
2025-04-11 11:16:08.378,147713,16335,17143,83875,134600
2025-04-11 11:16:08.385,147715,16333,17136,83881,134594
2025-04-11 11:16:08.398,147712,16329,17132,83868,134581
2025-04-11 11:16:08.406,147698,16319,17121,83863,134575
2025-04-11 11:16:08.428,147702,16315,17116,83859,134582
2025-04-11 11:16:08.429,147710,16305,17110,83857,134568
2025-04-11 11:16:08.438,147680,16302,17108,83866,134557
2025-04-11 11:16:08.445,147692,16299,17099,83854,134587
2025-04-11 11:16:08.457,147698,16296,17100,83853,134569
2025-04-11 11:16:08.465,147699,16292,17096,83866,134552
2025-04-11 11:16:08.493,147694,16292,17096,83847,134553
2025-04-11 11:16:08.494,147695,16289,17097,83838,134559
2025-04-11 11:16:08.498,147703,16285,17099,83840,134547
2025-04-11 11:16:08.506,147701,16285,17099,83851,134569
2025-04-11 11:16:08.518,147710,16287,17101,83863,134577
2025-04-11 11:16:08.526,147714,16291,17103,83855,134564
2025-04-11 11:16:08.538,147716,16287,17106,83859,134574
2025-04-11 11:16:08.565,147720,16285,17105,83853,134583
2025-04-11 11:16:08.567,147708,16286,17108,83870,134564
2025-04-11 11:16:08.569,147720,16294,17107,83860,134574
2025-04-11 11:16:08.578,147721,16292,17109,83872,134589
2025-04-11 11:16:08.586,147726,16296,17108,83854,134592
2025-04-11 11:16:08.598,147730,16295,17113,83859,134591
2025-04-11 11:16:08.606,147721,16296,17114,83872,134588
2025-04-11 11:16:08.636,147729,16299,17109,83869,134597
2025-04-11 11:16:08.637,147733,16304,17108,83867,134591
2025-04-11 11:16:08.639,147732,16300,17112,83862,134590
2025-04-11 11:16:08.649,147731,16305,17112,83871,134592
2025-04-11 11:16:08.658,147718,16304,17115,83875,134603
2025-04-11 11:16:08.671,147733,16302,17107,83884,134601
2025-04-11 11:16:08.677,147732,16302,17113,83868,134593
2025-04-11 11:16:08.707,147727,16303,17116,83880,134617
2025-04-11 11:16:08.708,147739,16302,17111,83872,134587
2025-04-11 11:16:08.710,147729,16299,17115,83867,134600
2025-04-11 11:16:08.718,147737,16305,17111,83864,134602
2025-04-11 11:16:08.730,147730,16306,17114,83869,134606
2025-04-11 11:16:08.738,147737,16306,17113,83856,134600
2025-04-11 11:16:08.750,147734,16307,17115,83862,134609
2025-04-11 11:16:08.776,147740,16308,17119,83862,134611
2025-04-11 11:16:08.778,147728,16307,17118,83866,134615
2025-04-11 11:16:08.779,147744,16301,17119,83872,134609
2025-04-11 11:16:08.790,147734,16308,17118,83860,134625
2025-04-11 11:16:08.797,147745,16312,17122,83865,134611
2025-04-11 11:16:08.810,147753,16312,17123,83869,134613
2025-04-11 11:16:08.818,147752,16313,17127,83857,134621
2025-04-11 11:16:08.847,147736,16315,17129,83872,134631
2025-04-11 11:16:08.848,147756,16317,17130,83868,134617
2025-04-11 11:16:08.850,147762,16319,17136,83879,134642
2025-04-11 11:16:08.859,147749,16318,17135,83879,134632
2025-04-11 11:16:08.869,147757,16319,17131,83877,134612
2025-04-11 11:16:08.882,147775,16322,17135,83862,134620
2025-04-11 11:16:08.889,147761,16324,17137,83863,134629
2025-04-11 11:16:08.917,147758,16322,17140,83857,134625
2025-04-11 11:16:08.919,147768,16323,17134,83869,134621
2025-04-11 11:16:08.921,147757,16327,17135,83855,134638
2025-04-11 11:16:08.930,147753,16328,17131,83865,134626
2025-04-11 11:16:08.942,147746,16324,17131,83867,134612
2025-04-11 11:16:08.949,147720,16323,17129,83846,134625
2025-04-11 11:16:08.962,147717,16325,17121,83838,134597
2025-04-11 11:16:08.988,147690,16317,17121,83840,134611
2025-04-11 11:16:08.990,147692,16308,17102,83838,134585
2025-04-11 11:16:08.991,147670,16305,17095,83834,134566
2025-04-11 11:16:09.001,147663,16298,17085,83822,134579
2025-04-11 11:16:09.010,147659,16290,17080,83816,134554
2025-04-11 11:16:09.022,147644,16281,17072,83820,134551
2025-04-11 11:16:09.029,147645,16281,17066,83808,134530
2025-04-11 11:16:09.060,147643,16273,17064,83809,134563
2025-04-11 11:16:09.062,147643,16273,17064,83809,134563
2025-04-11 11:16:09.063,147643,16261,17053,83806,134538
2025-04-11 11:16:09.066,147646,16262,17051,83798,134544
2025-04-11 11:16:09.070,147641,16253,17050,83798,134532
2025-04-11 11:16:09.081,147646,16255,17050,83800,134545
2025-04-11 11:16:09.089,147658,16248,17050,83797,134535
2025-04-11 11:16:09.102,147638,16252,17051,83783,134544
2025-04-11 11:16:09.131,147660,16249,17055,83799,134548
2025-04-11 11:16:09.133,147659,16244,17055,83801,134552
2025-04-11 11:16:09.135,147662,16249,17056,83810,134561
2025-04-11 11:16:09.141,147651,16250,17060,83799,134564
2025-04-11 11:16:09.153,147674,16255,17060,83814,134551
2025-04-11 11:16:09.161,147663,16258,17062,83808,134572
2025-04-11 11:16:09.173,147670,16258,17065,83809,134562
2025-04-11 11:16:09.202,147671,16258,17063,83811,134558
2025-04-11 11:16:09.204,147670,16257,17066,83813,134547
2025-04-11 11:16:09.205,147675,16261,17064,83804,134571
2025-04-11 11:16:09.214,147659,16261,17064,83814,134575
2025-04-11 11:16:09.221,147678,16261,17065,83815,134573
2025-04-11 11:16:09.233,147664,16266,17068,83820,134581
2025-04-11 11:16:09.242,147681,16264,17064,83814,134572
2025-04-11 11:16:09.273,147678,16264,17066,83812,134572
2025-04-11 11:16:09.275,147683,16262,17066,83817,134577
2025-04-11 11:16:09.277,147680,16263,17065,83816,134570
2025-04-11 11:16:09.282,147672,16262,17064,83804,134567
2025-04-11 11:16:09.293,147679,16262,17063,83811,134563
2025-04-11 11:16:09.301,147674,16266,17067,83815,134549
2025-04-11 11:16:09.313,147686,16266,17065,83802,134597
2025-04-11 11:16:09.321,147690,16268,17069,83827,134575
2025-04-11 11:16:09.345,147690,16274,17068,83818,134579
2025-04-11 11:16:09.346,147677,16271,17071,83807,134572
2025-04-11 11:16:09.354,147682,16273,17069,83814,134575
2025-04-11 11:16:09.361,147689,16275,17077,83806,134571
2025-04-11 11:16:09.373,147690,16275,17077,83827,134576
2025-04-11 11:16:09.385,147699,16276,17080,83825,134615
2025-04-11 11:16:09.393,147692,16276,17081,83831,134587
2025-04-11 11:16:09.416,147707,16279,17084,83836,134586
2025-04-11 11:16:09.418,147698,16278,17092,83827,134618
2025-04-11 11:16:09.426,147707,16284,17086,83827,134593
2025-04-11 11:16:09.433,147714,16281,17090,83827,134596
2025-04-11 11:16:09.445,147711,16287,17091,83834,134597
2025-04-11 11:16:09.454,147702,16288,17097,83839,134611
2025-04-11 11:16:09.487,147704,16296,17096,83829,134601
2025-04-11 11:16:09.489,147701,16292,17099,83831,134605
2025-04-11 11:16:09.491,147727,16295,17100,83833,134591
2025-04-11 11:16:09.494,147727,16298,17104,83835,134625
2025-04-11 11:16:09.505,147731,16299,17105,83822,134610
2025-04-11 11:16:09.514,147734,16301,17107,83842,134603
2025-04-11 11:16:09.526,147717,16304,17105,83840,134627
2025-04-11 11:16:09.533,147721,16297,17105,83843,134616
2025-04-11 11:16:09.559,147708,16306,17103,83826,134614
2025-04-11 11:16:09.560,147710,16303,17096,83830,134613
2025-04-11 11:16:09.564,147692,16305,17095,83824,134588
2025-04-11 11:16:09.574,147687,16301,17087,83823,134592
2025-04-11 11:16:09.586,147668,16302,17082,83811,134574
2025-04-11 11:16:09.598,147640,16295,17073,83811,134594
2025-04-11 11:16:09.605,147654,16285,17063,83809,134576
2025-04-11 11:16:09.632,147640,16283,17059,83797,134563
2025-04-11 11:16:09.634,147635,16281,17045,83800,134562
2025-04-11 11:16:09.637,147626,16269,17041,83788,134560
2025-04-11 11:16:09.646,147636,16263,17035,83789,134551
2025-04-11 11:16:09.657,147637,16262,17030,83782,134545
2025-04-11 11:16:09.666,147620,16255,17024,83789,134529
2025-04-11 11:16:09.677,147605,16251,17026,83783,134541
2025-04-11 11:16:09.702,147613,16245,17023,83775,134528
2025-04-11 11:16:09.704,147612,16245,17022,83777,134533
2025-04-11 11:16:09.706,147606,16240,17021,83771,134517
2025-04-11 11:16:09.717,147624,16241,17019,83767,134516
2025-04-11 11:16:09.725,147631,16233,17019,83765,134543
2025-04-11 11:16:09.738,147614,16240,17026,83766,134529
2025-04-11 11:16:09.746,147650,16239,17028,83762,134548
2025-04-11 11:16:09.773,147651,16241,17026,83783,134535
2025-04-11 11:16:09.774,147653,16244,17033,83777,134555
2025-04-11 11:16:09.777,147658,16249,17035,83788,134562
2025-04-11 11:16:09.785,147659,16249,17034,83792,134571
2025-04-11 11:16:09.797,147650,16253,17034,83782,134563
2025-04-11 11:16:09.805,147654,16257,17039,83775,134554
2025-04-11 11:16:09.817,147662,16258,17041,83784,134564
2025-04-11 11:16:09.843,147651,16261,17041,83786,134563
2025-04-11 11:16:09.844,147658,16264,17041,83795,134563
2025-04-11 11:16:09.849,147652,16258,17042,83792,134576
2025-04-11 11:16:09.853,147652,16258,17042,83792,134576
2025-04-11 11:16:09.857,147654,16261,17039,83794,134580
2025-04-11 11:16:09.869,147665,16263,17038,83792,134574
2025-04-11 11:16:09.877,147661,16266,17036,83790,134566
2025-04-11 11:16:09.889,147648,16261,17038,83772,134565
2025-04-11 11:16:09.912,147652,16264,17038,83787,134561
2025-04-11 11:16:09.914,147659,16262,17046,83795,134563
2025-04-11 11:16:09.916,147668,16264,17044,83794,134562
2025-04-11 11:16:09.929,147670,16259,17042,83787,134580
2025-04-11 11:16:09.937,147650,16266,17042,83785,134568
2025-04-11 11:16:09.949,147684,16259,17041,83791,134588
2025-04-11 11:16:09.957,147662,16263,17038,83772,134572
2025-04-11 11:16:09.977,147661,16266,17039,83768,134566
2025-04-11 11:16:09.978,147677,16265,17040,83776,134579
2025-04-11 11:16:09.989,147669,16265,17050,83776,134571
2025-04-11 11:16:09.996,147674,16264,17049,83775,134585
2025-04-11 11:16:10.009,147697,16272,17048,83784,134579
2025-04-11 11:16:10.016,147684,16271,17054,83812,134588
2025-04-11 11:16:10.041,147668,16274,17057,83786,134602
2025-04-11 11:16:10.043,147684,16273,17056,83794,134588
2025-04-11 11:16:10.049,147679,16276,17057,83779,134580
2025-04-11 11:16:10.056,147678,16277,17059,83781,134584
2025-04-11 11:16:10.069,147696,16279,17056,83782,134590
2025-04-11 11:16:10.077,147690,16276,17056,83774,134564
2025-04-11 11:16:10.089,147667,16274,17060,83786,134571
2025-04-11 11:16:10.104,147693,16276,17061,83774,134580
2025-04-11 11:16:10.108,147674,16279,17063,83777,134575
2025-04-11 11:16:10.121,147678,16282,17063,83770,134567
2025-04-11 11:16:10.128,147675,16280,17064,83780,134587
2025-04-11 11:16:10.141,147680,16283,17062,83785,134603
2025-04-11 11:16:10.149,147663,16276,17058,83780,134590
2025-04-11 11:16:10.168,147663,16277,17057,83781,134574
2025-04-11 11:16:10.170,147661,16284,17055,83775,134581
2025-04-11 11:16:10.180,147643,16277,17050,83761,134560
2025-04-11 11:16:10.188,147630,16275,17046,83758,134558
2025-04-11 11:16:10.200,147615,16277,17039,83757,134551
2025-04-11 11:16:10.209,147611,16267,17031,83754,134547
2025-04-11 11:16:10.233,147591,16261,17019,83739,134535
2025-04-11 11:16:10.234,147575,16259,17012,83737,134535
2025-04-11 11:16:10.240,147587,16245,17002,83725,134523
2025-04-11 11:16:10.249,147575,16245,16993,83729,134510
2025-04-11 11:16:10.261,147574,16233,16985,83717,134511
2025-04-11 11:16:10.269,147549,16230,16977,83726,134501
2025-04-11 11:16:10.281,147545,16222,16969,83711,134484
2025-04-11 11:16:10.297,147536,16216,16969,83708,134484
2025-04-11 11:16:10.301,147530,16209,16957,83688,134458
2025-04-11 11:16:10.308,147534,16203,16959,83689,134460
2025-04-11 11:16:10.321,147536,16202,16954,83693,134466
2025-04-11 11:16:10.329,147546,16205,16956,83683,134468
2025-04-11 11:16:10.340,147548,16202,16960,83687,134453
2025-04-11 11:16:10.362,147576,16195,16962,83684,134452
2025-04-11 11:16:10.363,147568,16201,16966,83692,134474
2025-04-11 11:16:10.373,147554,16201,16967,83689,134500
2025-04-11 11:16:10.380,147578,16200,16969,83702,134505
2025-04-11 11:16:10.392,147577,16205,16971,83691,134497
2025-04-11 11:16:10.401,147575,16206,16973,83701,134495
2025-04-11 11:16:10.426,147578,16205,16972,83701,134509
2025-04-11 11:16:10.427,147574,16205,16971,83689,134493
2025-04-11 11:16:10.433,147577,16213,16976,83709,134510
2025-04-11 11:16:10.440,147592,16215,16978,83688,134499
2025-04-11 11:16:10.453,147579,16214,16977,83693,134488
2025-04-11 11:16:10.460,147572,16218,16974,83701,134511
2025-04-11 11:16:10.473,147590,16218,16975,83703,134504
2025-04-11 11:16:10.491,147576,16220,16978,83701,134498
2025-04-11 11:16:10.493,147570,16222,16975,83706,134518
2025-04-11 11:16:10.501,147587,16222,16972,83698,134510
2025-04-11 11:16:10.513,147566,16225,16972,83707,134530
2025-04-11 11:16:10.520,147587,16223,16981,83703,134526
2025-04-11 11:16:10.532,147569,16221,16977,83694,134517
2025-04-11 11:16:10.558,147576,16218,16972,83685,134509
2025-04-11 11:16:10.560,147568,16218,16966,83685,134509
2025-04-11 11:16:10.561,147562,16216,16967,83672,134478
2025-04-11 11:16:10.573,147552,16210,16967,83666,134488
2025-04-11 11:16:10.580,147567,16207,16965,83664,134478
2025-04-11 11:16:10.593,147549,16206,16962,83659,134472
2025-04-11 11:16:10.604,147532,16203,16967,83646,134470
2025-04-11 11:16:10.623,147534,16203,16963,83657,134452
2025-04-11 11:16:10.624,147547,16199,16967,83654,134449
2025-04-11 11:16:10.633,147542,16202,16962,83647,134453
2025-04-11 11:16:10.644,147568,16202,16960,83641,134457
2025-04-11 11:16:10.653,147539,16202,16958,83642,134460
2025-04-11 11:16:10.656,147539,16202,16958,83642,134460
2025-04-11 11:16:10.664,147548,16198,16962,83650,134442
2025-04-11 11:16:10.687,147551,16198,16958,83650,134464
2025-04-11 11:16:10.688,147541,16197,16961,83642,134464
2025-04-11 11:16:10.692,147560,16208,16962,83643,134469
2025-04-11 11:16:10.704,147561,16203,16967,83653,134485
2025-04-11 11:16:10.713,147559,16206,16966,83660,134458
2025-04-11 11:16:10.724,147561,16200,16968,83667,134472
2025-04-11 11:16:10.732,147569,16210,16974,83669,134478
2025-04-11 11:16:10.752,147573,16209,16974,83656,134489
2025-04-11 11:16:10.753,147557,16211,16973,83654,134478
2025-04-11 11:16:10.764,147570,16210,16974,83662,134480
2025-04-11 11:16:10.772,147569,16211,16973,83644,134473
2025-04-11 11:16:10.785,147573,16213,16975,83651,134502
2025-04-11 11:16:10.792,147540,16211,16967,83654,134468
2025-04-11 11:16:10.817,147546,16210,16964,83639,134468
2025-04-11 11:16:10.818,147518,16206,16955,83646,134466
2025-04-11 11:16:10.824,147518,16205,16947,83647,134450
2025-04-11 11:16:10.833,147499,16199,16939,83634,134445
2025-04-11 11:16:10.845,147504,16195,16932,83628,134420
2025-04-11 11:16:10.857,147477,16187,16923,83645,134433
2025-04-11 11:16:10.864,147478,16178,16915,83617,134423
2025-04-11 11:16:10.881,147466,16167,16908,83613,134425
2025-04-11 11:16:10.885,147458,16161,16902,83620,134428
2025-04-11 11:16:10.896,147451,16159,16895,83616,134416
2025-04-11 11:16:10.904,147464,16152,16891,83611,134395
2025-04-11 11:16:10.916,147448,16146,16881,83612,134405
2025-04-11 11:16:10.923,147465,16144,16884,83594,134409
2025-04-11 11:16:10.946,147472,16140,16883,83600,134384
2025-04-11 11:16:10.947,147452,16139,16878,83600,134414
2025-04-11 11:16:10.956,147460,16133,16878,83597,134395
2025-04-11 11:16:10.964,147456,16129,16877,83580,134407
2025-04-11 11:16:10.976,147445,16134,16877,83581,134377
2025-04-11 11:16:10.985,147443,16127,16876,83579,134400
2025-04-11 11:16:11.010,147450,16135,16877,83569,134401
2025-04-11 11:16:11.011,147454,16133,16878,83586,134384
2025-04-11 11:16:11.017,147462,16133,16878,83568,134372
2025-04-11 11:16:11.025,147448,16137,16877,83578,134393
2025-04-11 11:16:11.036,147449,16133,16876,83563,134386
2025-04-11 11:16:11.044,147447,16135,16878,83568,134419
2025-04-11 11:16:11.057,147452,16131,16882,83555,134407
2025-04-11 11:16:11.074,147453,16135,16881,83563,134396
2025-04-11 11:16:11.076,147434,16138,16875,83563,134397
2025-04-11 11:16:11.084,147426,16137,16874,83549,134399
2025-04-11 11:16:11.096,147432,16136,16877,83553,134384
2025-04-11 11:16:11.108,147436,16139,16875,83547,134382
2025-04-11 11:16:11.116,147431,16138,16874,83547,134395
2025-04-11 11:16:11.138,147434,16139,16873,83535,134407
2025-04-11 11:16:11.139,147428,16129,16870,83543,134376
2025-04-11 11:16:11.148,147436,16134,16872,83539,134388
2025-04-11 11:16:11.156,147444,16129,16873,83545,134402
2025-04-11 11:16:11.168,147426,16129,16867,83527,134375
2025-04-11 11:16:11.176,147432,16134,16876,83525,134374
2025-04-11 11:16:11.202,147437,16127,16866,83517,134363
2025-04-11 11:16:11.204,147431,16132,16873,83519,134382
2025-04-11 11:16:11.208,147426,16132,16874,83520,134375
2025-04-11 11:16:11.215,147429,16135,16877,83528,134370
2025-04-11 11:16:11.228,147437,16137,16882,83534,134368
2025-04-11 11:16:11.236,147442,16143,16881,83534,134401
2025-04-11 11:16:11.247,147461,16135,16882,83535,134392
2025-04-11 11:16:11.266,147465,16142,16891,83547,134393
2025-04-11 11:16:11.268,147451,16143,16887,83541,134406
2025-04-11 11:16:11.276,147460,16144,16890,83548,134407
2025-04-11 11:16:11.288,147465,16144,16884,83543,134409
2025-04-11 11:16:11.297,147454,16148,16894,83539,134403
2025-04-11 11:16:11.308,147477,16150,16893,83554,134398
2025-04-11 11:16:11.332,147458,16153,16890,83543,134411
2025-04-11 11:16:11.334,147464,16152,16899,83545,134402
2025-04-11 11:16:11.336,147469,16155,16898,83543,134398
2025-04-11 11:16:11.348,147469,16155,16901,83545,134411
2025-04-11 11:16:11.360,147462,16153,16900,83536,134409
2025-04-11 11:16:11.368,147470,16150,16899,83528,134397
2025-04-11 11:16:11.380,147469,16154,16900,83522,134396
2025-04-11 11:16:11.398,147474,16156,16900,83540,134397
2025-04-11 11:16:11.400,147474,16153,16903,83532,134393
2025-04-11 11:16:11.409,147455,16157,16902,83519,134384
2025-04-11 11:16:11.420,147443,16159,16894,83528,134401
2025-04-11 11:16:11.428,147440,16152,16894,83513,134388
2025-04-11 11:16:11.441,147444,16153,16892,83519,134381
2025-04-11 11:16:11.463,147417,16153,16881,83498,134357
2025-04-11 11:16:11.464,147413,16144,16870,83507,134352
2025-04-11 11:16:11.465,147413,16144,16870,83507,134352
2025-04-11 11:16:11.468,147391,16131,16855,83487,134347
2025-04-11 11:16:11.480,147377,16126,16842,83466,134334
2025-04-11 11:16:11.488,147361,16121,16827,83464,134336
2025-04-11 11:16:11.500,147362,16110,16827,83459,134302
2025-04-11 11:16:11.507,147337,16104,16818,83464,134317
2025-04-11 11:16:11.528,147342,16097,16808,83449,134309
2025-04-11 11:16:11.529,147355,16093,16802,83446,134321
2025-04-11 11:16:11.540,147343,16083,16803,83452,134298
2025-04-11 11:16:11.548,147336,16078,16802,83445,134306
2025-04-11 11:16:11.560,147339,16080,16798,83443,134287
2025-04-11 11:16:11.567,147339,16077,16794,83447,134293
2025-04-11 11:16:11.594,147339,16070,16795,83441,134304
2025-04-11 11:16:11.595,147333,16076,16800,83430,134288
2025-04-11 11:16:11.600,147357,16075,16799,83452,134295
2025-04-11 11:16:11.613,147361,16076,16804,83443,134306
2025-04-11 11:16:11.620,147353,16076,16805,83450,134299
2025-04-11 11:16:11.632,147371,16080,16803,83461,134319
2025-04-11 11:16:11.641,147364,16080,16810,83457,134324
2025-04-11 11:16:11.663,147373,16085,16815,83461,134330
2025-04-11 11:16:11.665,147394,16091,16815,83456,134338
2025-04-11 11:16:11.672,147379,16088,16817,83458,134334
2025-04-11 11:16:11.681,147377,16094,16818,83465,134345
2025-04-11 11:16:11.692,147393,16093,16820,83458,134341
2025-04-11 11:16:11.701,147373,16094,16824,83460,134325
2025-04-11 11:16:11.712,147394,16103,16819,83461,134367
2025-04-11 11:16:11.733,147397,16095,16823,83459,134331
2025-04-11 11:16:11.735,147391,16096,16826,83466,134348
2025-04-11 11:16:11.740,147399,16097,16824,83456,134330
2025-04-11 11:16:11.752,147395,16095,16825,83465,134338
2025-04-11 11:16:11.760,147381,16096,16824,83449,134361
2025-04-11 11:16:11.772,147394,16097,16819,83471,134354
2025-04-11 11:16:11.780,147404,16098,16821,83469,134344
2025-04-11 11:16:11.800,147392,16098,16824,83466,134351
2025-04-11 11:16:11.802,147407,16095,16824,83463,134344
2025-04-11 11:16:11.811,147405,16101,16829,83460,134345
2025-04-11 11:16:11.820,147403,16098,16822,83466,134346
2025-04-11 11:16:11.832,147413,16102,16829,83473,134357
2025-04-11 11:16:11.840,147414,16105,16827,83471,134330
2025-04-11 11:16:11.865,147413,16101,16832,83482,134357
2025-04-11 11:16:11.866,147407,16109,16836,83477,134354
2025-04-11 11:16:11.872,147431,16110,16839,83492,134363
2025-04-11 11:16:11.884,147435,16111,16843,83485,134388
2025-04-11 11:16:11.892,147432,16116,16845,83490,134388
2025-04-11 11:16:11.903,147452,16122,16847,83509,134381
2025-04-11 11:16:11.912,147459,16126,16853,83506,134400
2025-04-11 11:16:11.928,147483,16125,16859,83521,134404
2025-04-11 11:16:11.931,147496,16135,16858,83527,134420
2025-04-11 11:16:11.944,147489,16138,16863,83528,134417
2025-04-11 11:16:11.952,147482,16138,16868,83541,134421
2025-04-11 11:16:11.964,147482,16138,16873,83541,134427
2025-04-11 11:16:11.971,147488,16142,16873,83541,134461
2025-04-11 11:16:11.995,147500,16139,16875,83536,134456
2025-04-11 11:16:11.996,147495,16145,16876,83542,134451
2025-04-11 11:16:12.003,147502,16139,16877,83543,134451
2025-04-11 11:16:12.012,147501,16136,16870,83526,134436
2025-04-11 11:16:12.025,147469,16136,16868,83519,134436
2025-04-11 11:16:12.032,147468,16139,16869,83493,134388
2025-04-11 11:16:12.059,147478,16133,16866,83469,134402
2025-04-11 11:16:12.061,147466,16130,16868,83454,134361
2025-04-11 11:16:12.063,147461,16127,16869,83441,134372
2025-04-11 11:16:12.072,147444,16127,16861,83429,134359
2025-04-11 11:16:12.084,147432,16121,16859,83426,134333
2025-04-11 11:16:12.096,147419,16111,16847,83418,134330
2025-04-11 11:16:12.104,147391,16115,16844,83403,134299
2025-04-11 11:16:12.126,147382,16107,16832,83379,134306
2025-04-11 11:16:12.127,147379,16101,16824,83382,134297
2025-04-11 11:16:12.136,147359,16095,16812,83355,134273
2025-04-11 11:16:12.144,147347,16090,16808,83344,134262
2025-04-11 11:16:12.156,147335,16085,16796,83355,134254
2025-04-11 11:16:12.164,147317,16077,16792,83339,134246
2025-04-11 11:16:12.175,147326,16073,16784,83355,134237
2025-04-11 11:16:12.196,147334,16065,16783,83346,134260
2025-04-11 11:16:12.197,147324,16060,16780,83357,134262
2025-04-11 11:16:12.203,147339,16053,16779,83353,134244
2025-04-11 11:16:12.216,147342,16048,16783,83372,134249
2025-04-11 11:16:12.223,147360,16055,16782,83362,134280
2025-04-11 11:16:12.236,147374,16055,16791,83381,134282
2025-04-11 11:16:12.243,147380,16059,16785,83389,134290
2025-04-11 11:16:12.261,147388,16064,16793,83403,134306
2025-04-11 11:16:12.267,147403,16071,16801,83411,134318
2025-04-11 11:16:12.268,147403,16071,16801,83411,134318
2025-04-11 11:16:12.276,147405,16081,16810,83427,134326
2025-04-11 11:16:12.283,147422,16083,16813,83434,134347
2025-04-11 11:16:12.296,147411,16084,16822,83435,134330
2025-04-11 11:16:12.303,147419,16085,16823,83432,134346
2025-04-11 11:16:12.328,147420,16089,16821,83418,134321
2025-04-11 11:16:12.329,147418,16095,16826,83417,134323
2025-04-11 11:16:12.335,147415,16097,16824,83405,134306
2025-04-11 11:16:12.347,147395,16100,16826,83410,134317
2025-04-11 11:16:12.356,147402,16099,16829,83397,134308
2025-04-11 11:16:12.367,147388,16100,16827,83382,134281
2025-04-11 11:16:12.376,147382,16098,16824,83373,134289
2025-04-11 11:16:12.392,147378,16099,16824,83372,134270
2025-04-11 11:16:12.395,147362,16100,16824,83354,134264
2025-04-11 11:16:12.407,147372,16104,16824,83339,134275
2025-04-11 11:16:12.415,147366,16102,16825,83347,134275
2025-04-11 11:16:12.427,147359,16097,16821,83325,134259
2025-04-11 11:16:12.435,147363,16101,16826,83325,134259
2025-04-11 11:16:12.456,147362,16103,16824,83319,134242
2025-04-11 11:16:12.457,147345,16099,16830,83326,134238
2025-04-11 11:16:12.468,147349,16097,16829,83327,134258
2025-04-11 11:16:12.475,147366,16102,16828,83323,134247
2025-04-11 11:16:12.487,147368,16102,16828,83324,134243
2025-04-11 11:16:12.495,147368,16102,16835,83337,134261
2025-04-11 11:16:12.521,147362,16108,16838,83331,134243
2025-04-11 11:16:12.522,147363,16110,16842,83344,134251
2025-04-11 11:16:12.527,147386,16115,16845,83333,134251
2025-04-11 11:16:12.536,147382,16117,16848,83334,134244
2025-04-11 11:16:12.547,147390,16121,16857,83343,134248
2025-04-11 11:16:12.555,147391,16125,16857,83342,134269
2025-04-11 11:16:12.568,147409,16129,16863,83346,134255
2025-04-11 11:16:12.585,147407,16136,16863,83344,134295
2025-04-11 11:16:12.587,147409,16138,16867,83353,134280
2025-04-11 11:16:12.600,147401,16141,16872,83344,134270
2025-04-11 11:16:12.607,147409,16145,16875,83329,134278
2025-04-11 11:16:12.619,147413,16149,16875,83329,134271
2025-04-11 11:16:12.627,147420,16149,16883,83333,134276
2025-04-11 11:16:12.652,147415,16154,16882,83332,134273
2025-04-11 11:16:12.654,147419,16159,16887,83341,134289
2025-04-11 11:16:12.659,147424,16165,16890,83329,134269
2025-04-11 11:16:12.668,147433,16166,16898,83337,134281
2025-04-11 11:16:12.679,147419,16173,16899,83325,134287
2025-04-11 11:16:12.688,147429,16179,16901,83331,134291
2025-04-11 11:16:12.700,147438,16176,16907,83347,134288
2025-04-11 11:16:12.728,147435,16182,16908,83345,134295
2025-04-11 11:16:12.731,147435,16182,16912,83345,134289
2025-04-11 11:16:12.733,147423,16186,16913,83349,134315
2025-04-11 11:16:12.740,147445,16192,16924,83344,134305
2025-04-11 11:16:12.747,147444,16190,16921,83349,134314
2025-04-11 11:16:12.759,147429,16195,16923,83363,134304
2025-04-11 11:16:12.768,147438,16191,16926,83371,134303
2025-04-11 11:16:12.797,147415,16194,16918,83362,134294
2025-04-11 11:16:12.799,147412,16189,16915,83359,134301
2025-04-11 11:16:12.800,147408,16188,16909,83348,134307
2025-04-11 11:16:12.808,147395,16184,16903,83361,134292
2025-04-11 11:16:12.819,147382,16179,16898,83351,134280
2025-04-11 11:16:12.827,147390,16166,16884,83356,134299
2025-04-11 11:16:12.839,147373,16162,16874,83355,134271
2025-04-11 11:16:12.861,147374,16158,16867,83349,134270
2025-04-11 11:16:12.862,147349,16151,16859,83347,134275
2025-04-11 11:16:12.871,147358,16139,16852,83337,134248
2025-04-11 11:16:12.879,147361,16135,16848,83347,134244
2025-04-11 11:16:12.891,147348,16128,16844,83341,134249
2025-04-11 11:16:12.899,147349,16124,16845,83343,134261
2025-04-11 11:16:12.927,147356,16128,16846,83347,134255
2025-04-11 11:16:12.928,147362,16125,16844,83338,134273
2025-04-11 11:16:12.931,147365,16129,16845,83356,134257
2025-04-11 11:16:12.939,147383,16125,16847,83347,134260
2025-04-11 11:16:12.950,147406,16131,16854,83351,134268
2025-04-11 11:16:12.959,147405,16130,16855,83365,134294
2025-04-11 11:16:12.971,147417,16142,16865,83375,134303
2025-04-11 11:16:12.991,147415,16143,16864,83379,134316
2025-04-11 11:16:12.993,147425,16149,16873,83395,134316
2025-04-11 11:16:12.999,147437,16152,16878,83407,134326
2025-04-11 11:16:13.011,147433,16156,16881,83406,134335
2025-04-11 11:16:13.020,147430,16156,16879,83411,134361
2025-04-11 11:16:13.031,147441,16156,16883,83410,134351
2025-04-11 11:16:13.039,147450,16163,16890,83425,134345
2025-04-11 11:16:13.056,147455,16165,16892,83410,134346
2025-04-11 11:16:13.059,147465,16169,16897,83428,134347
2025-04-11 11:16:13.072,147445,16167,16891,83420,134360
2025-04-11 11:16:13.079,147456,16166,16893,83416,134356
2025-04-11 11:16:13.090,147469,16174,16896,83436,134373
2025-04-11 11:16:13.103,147467,16174,16896,83434,134374
2025-04-11 11:16:13.121,147475,16175,16899,83426,134373
2025-04-11 11:16:13.123,147457,16178,16904,83440,134383
2025-04-11 11:16:13.132,147480,16172,16902,83443,134379
2025-04-11 11:16:13.143,147475,16180,16901,83447,134403
2025-04-11 11:16:13.152,147470,16179,16903,83461,134399
2025-04-11 11:16:13.164,147471,16172,16902,83449,134393
2025-04-11 11:16:13.188,147473,16176,16896,83445,134397
2025-04-11 11:16:13.189,147480,16177,16900,83442,134395
2025-04-11 11:16:13.191,147488,16181,16904,83442,134387
2025-04-11 11:16:13.203,147479,16181,16907,83427,134392
2025-04-11 11:16:13.211,147481,16185,16915,83446,134402
2025-04-11 11:16:13.223,147501,16185,16912,83458,134408
2025-04-11 11:16:13.231,147499,16189,16917,83455,134405
2025-04-11 11:16:13.253,147492,16186,16919,83446,134401
2025-04-11 11:16:13.255,147505,16191,16918,83460,134417
2025-04-11 11:16:13.263,147502,16194,16923,83466,134419
2025-04-11 11:16:13.275,147504,16197,16924,83445,134404
2025-04-11 11:16:13.275,147504,16197,16924,83445,134404
2025-04-11 11:16:13.283,147506,16203,16930,83455,134416
2025-04-11 11:16:13.291,147503,16200,16927,83452,134430
2025-04-11 11:16:13.317,147512,16207,16929,83448,134404
2025-04-11 11:16:13.318,147525,16205,16931,83462,134426
2025-04-11 11:16:13.323,147529,16213,16938,83450,134425
2025-04-11 11:16:13.331,147508,16213,16935,83467,134423
2025-04-11 11:16:13.343,147541,16215,16945,83455,134430
2025-04-11 11:16:13.355,147530,16214,16941,83454,134434
2025-04-11 11:16:13.363,147540,16215,16945,83463,134433
2025-04-11 11:16:13.381,147537,16222,16948,83458,134429
2025-04-11 11:16:13.383,147545,16223,16951,83457,134426
2025-04-11 11:16:13.394,147540,16228,16953,83460,134435
2025-04-11 11:16:13.402,147555,16229,16953,83474,134451
2025-04-11 11:16:13.415,147555,16231,16958,83463,134453
2025-04-11 11:16:13.423,147541,16230,16956,83462,134442
2025-04-11 11:16:13.447,147544,16233,16956,83464,134417
2025-04-11 11:16:13.448,147539,16235,16956,83461,134437
2025-04-11 11:16:13.455,147527,16236,16953,83443,134428
2025-04-11 11:16:13.464,147518,16234,16952,83443,134413
2025-04-11 11:16:13.475,147516,16232,16949,83440,134433
2025-04-11 11:16:13.483,147502,16227,16944,83446,134418
2025-04-11 11:16:13.495,147504,16230,16936,83441,134418
2025-04-11 11:16:13.514,147476,16222,16928,83435,134420
2025-04-11 11:16:13.516,147480,16220,16921,83441,134415
2025-04-11 11:16:13.523,147476,16210,16912,83429,134407
2025-04-11 11:16:13.535,147466,16205,16907,83425,134394
2025-04-11 11:16:13.543,147470,16198,16900,83422,134395
2025-04-11 11:16:13.555,147462,16198,16895,83439,134389
2025-04-11 11:16:13.563,147467,16187,16895,83428,134413
2025-04-11 11:16:13.585,147467,16187,16892,83425,134381
2025-04-11 11:16:13.586,147468,16177,16888,83420,134401
2025-04-11 11:16:13.596,147484,16176,16887,83426,134378
2025-04-11 11:16:13.606,147470,16173,16891,83424,134402
2025-04-11 11:16:13.615,147474,16172,16891,83419,134415
2025-04-11 11:16:13.627,147485,16175,16892,83427,134399
2025-04-11 11:16:13.650,147494,16179,16892,83436,134388
2025-04-11 11:16:13.652,147493,16180,16894,83432,134397
2025-04-11 11:16:13.655,147502,16177,16900,83449,134414
2025-04-11 11:16:13.667,147520,16183,16903,83441,134410
2025-04-11 11:16:13.674,147507,16186,16911,83431,134429
2025-04-11 11:16:13.687,147510,16195,16915,83449,134422
2025-04-11 11:16:13.695,147530,16195,16915,83449,134443
2025-04-11 11:16:13.715,147542,16201,16919,83456,134427
2025-04-11 11:16:13.716,147541,16211,16924,83462,134439
2025-04-11 11:16:13.727,147549,16206,16925,83460,134456
2025-04-11 11:16:13.734,147558,16218,16928,83480,134471
2025-04-11 11:16:13.746,147546,16221,16933,83485,134482
2025-04-11 11:16:13.755,147546,16224,16932,83487,134468
2025-04-11 11:16:13.779,147554,16227,16940,83487,134473
2025-04-11 11:16:13.780,147558,16226,16943,83489,134460
2025-04-11 11:16:13.786,147565,16232,16941,83488,134494
2025-04-11 11:16:13.795,147555,16230,16945,83503,134484
2025-04-11 11:16:13.807,147568,16221,16943,83485,134473
2025-04-11 11:16:13.815,147561,16221,16940,83477,134476
2025-04-11 11:16:13.827,147545,16216,16939,83473,134463
2025-04-11 11:16:13.846,147562,16213,16940,83467,134466
2025-04-11 11:16:13.847,147559,16211,16944,83472,134454
2025-04-11 11:16:13.859,147577,16211,16944,83481,134483
2025-04-11 11:16:13.867,147564,16215,16938,83466,134491
2025-04-11 11:16:13.879,147560,16208,16944,83497,134494
2025-04-11 11:16:13.887,147584,16210,16947,83483,134503
2025-04-11 11:16:13.911,147589,16210,16948,83490,134486
2025-04-11 11:16:13.912,147604,16213,16952,83488,134487
2025-04-11 11:16:13.918,147616,16217,16955,83517,134530
2025-04-11 11:16:13.927,147619,16220,16957,83529,134559
2025-04-11 11:16:13.939,147648,16231,16961,83536,134558
2025-04-11 11:16:13.947,147659,16237,16968,83555,134603
2025-04-11 11:16:13.959,147644,16248,16968,83565,134616
2025-04-11 11:16:13.975,147653,16251,16973,83567,134609
2025-04-11 11:16:13.979,147643,16257,16972,83578,134641
2025-04-11 11:16:13.986,147646,16260,16977,83584,134637
2025-04-11 11:16:13.998,147660,16271,16983,83571,134617
2025-04-11 11:16:14.007,147647,16272,16984,83561,134613
2025-04-11 11:16:14.018,147623,16275,16986,83560,134628
2025-04-11 11:16:14.040,147645,16280,16987,83545,134607
2025-04-11 11:16:14.041,147618,16278,16986,83547,134600
2025-04-11 11:16:14.047,147621,16281,16991,83539,134570
2025-04-11 11:16:14.059,147620,16282,16988,83524,134572
2025-04-11 11:16:14.066,147613,16286,16994,83521,134587
2025-04-11 11:16:14.079,147617,16287,16993,83505,134572
2025-04-11 11:16:14.082,147617,16287,16993,83505,134572
2025-04-11 11:16:14.086,147623,16295,16998,83509,134573
2025-04-11 11:16:14.105,147622,16293,17000,83513,134552
2025-04-11 11:16:14.110,147616,16293,16998,83509,134562
2025-04-11 11:16:14.119,147607,16294,16991,83509,134564
2025-04-11 11:16:14.130,147592,16296,16992,83519,134553
2025-04-11 11:16:14.139,147603,16292,16984,83506,134561
2025-04-11 11:16:14.150,147597,16287,16983,83522,134571
2025-04-11 11:16:14.169,147588,16287,16974,83524,134591
2025-04-11 11:16:14.171,147566,16287,16967,83543,134590
2025-04-11 11:16:14.179,147569,16279,16964,83532,134612
2025-04-11 11:16:14.190,147580,16278,16957,83538,134593
2025-04-11 11:16:14.199,147575,16271,16952,83546,134590
2025-04-11 11:16:14.210,147563,16263,16943,83558,134598
2025-04-11 11:16:14.218,147556,16255,16937,83541,134597
2025-04-11 11:16:14.233,147546,16249,16932,83543,134582
2025-04-11 11:16:14.238,147558,16243,16928,83539,134576
2025-04-11 11:16:14.251,147540,16241,16922,83539,134575
2025-04-11 11:16:14.259,147532,16234,16918,83518,134557
2025-04-11 11:16:14.271,147539,16229,16917,83520,134556
2025-04-11 11:16:14.279,147538,16228,16916,83496,134536
2025-04-11 11:16:14.297,147523,16224,16916,83505,134543
2025-04-11 11:16:14.299,147526,16227,16913,83478,134517
2025-04-11 11:16:14.310,147523,16223,16911,83482,134509
2025-04-11 11:16:14.318,147501,16217,16916,83458,134489
2025-04-11 11:16:14.331,147492,16216,16919,83455,134475
2025-04-11 11:16:14.339,147498,16221,16920,83456,134477
2025-04-11 11:16:14.362,147496,16221,16917,83440,134464
2025-04-11 11:16:14.363,147506,16218,16919,83438,134461
2025-04-11 11:16:14.370,147500,16227,16927,83440,134458
2025-04-11 11:16:14.382,147515,16224,16930,83447,134483
2025-04-11 11:16:14.390,147525,16233,16928,83449,134481
2025-04-11 11:16:14.403,147509,16230,16928,83465,134494
2025-04-11 11:16:14.410,147518,16233,16931,83467,134502
2025-04-11 11:16:14.426,147532,16232,16935,83473,134514
2025-04-11 11:16:14.431,147524,16237,16931,83469,134512
2025-04-11 11:16:14.442,147511,16235,16935,83481,134514
2025-04-11 11:16:14.451,147521,16237,16932,83475,134514
2025-04-11 11:16:14.463,147521,16240,16929,83477,134494
2025-04-11 11:16:14.470,147527,16242,16931,83475,134511
2025-04-11 11:16:14.490,147521,16242,16930,83469,134505
2025-04-11 11:16:14.491,147531,16245,16930,83472,134499
2025-04-11 11:16:14.502,147516,16243,16932,83477,134497
2025-04-11 11:16:14.510,147514,16248,16936,83469,134506
2025-04-11 11:16:14.523,147506,16248,16937,83467,134510
2025-04-11 11:16:14.531,147514,16244,16933,83456,134509
2025-04-11 11:16:14.555,147511,16240,16938,83455,134489
2025-04-11 11:16:14.556,147515,16244,16938,83444,134510
2025-04-11 11:16:14.563,147521,16252,16942,83447,134480
2025-04-11 11:16:14.571,147513,16247,16944,83454,134489
2025-04-11 11:16:14.582,147530,16249,16946,83443,134487
2025-04-11 11:16:14.590,147525,16253,16949,83444,134493
2025-04-11 11:16:14.603,147536,16257,16949,83459,134512
2025-04-11 11:16:14.621,147525,16256,16952,83454,134504
2025-04-11 11:16:14.622,147532,16263,16953,83442,134527
2025-04-11 11:16:14.634,147535,16261,16959,83446,134531
2025-04-11 11:16:14.642,147545,16270,16961,83454,134514
2025-04-11 11:16:14.654,147543,16271,16964,83455,134511
2025-04-11 11:16:14.662,147545,16272,16964,83459,134527
2025-04-11 11:16:14.686,147546,16280,16969,83456,134526
2025-04-11 11:16:14.687,147556,16283,16972,83454,134519
2025-04-11 11:16:14.694,147544,16281,16976,83458,134548
2025-04-11 11:16:14.703,147555,16285,16977,83466,134529
2025-04-11 11:16:14.715,147563,16288,16982,83480,134552
2025-04-11 11:16:14.722,147577,16291,16984,83478,134537
2025-04-11 11:16:14.735,147562,16290,16981,83470,134545
2025-04-11 11:16:14.750,147559,16297,16984,83479,134556
2025-04-11 11:16:14.754,147561,16299,16978,83476,134543
2025-04-11 11:16:14.763,147558,16298,16974,83473,134537
2025-04-11 11:16:14.774,147539,16295,16970,83468,134540
2025-04-11 11:16:14.782,147541,16287,16968,83456,134541
2025-04-11 11:16:14.794,147520,16288,16960,83455,134520
2025-04-11 11:16:14.820,147529,16285,16948,83435,134516
2025-04-11 11:16:14.822,147525,16280,16943,83444,134514
2025-04-11 11:16:14.823,147505,16266,16939,83443,134503
2025-04-11 11:16:14.834,147506,16269,16931,83436,134491
2025-04-11 11:16:14.842,147492,16261,16927,83420,134482
2025-04-11 11:16:14.855,147488,16252,16918,83411,134467
2025-04-11 11:16:14.862,147499,16245,16918,83404,134473
2025-04-11 11:16:14.886,147472,16243,16912,83396,134466
2025-04-11 11:16:14.887,147473,16236,16908,83401,134469
2025-04-11 11:16:14.890,147473,16236,16908,83401,134469
2025-04-11 11:16:14.894,147476,16228,16906,83384,134437
2025-04-11 11:16:14.906,147455,16227,16904,83381,134439
2025-04-11 11:16:14.915,147467,16221,16904,83363,134441
2025-04-11 11:16:14.927,147468,16224,16906,83355,134425
2025-04-11 11:16:14.934,147440,16222,16912,83352,134421
2025-04-11 11:16:14.950,147460,16219,16914,83371,134415
2025-04-11 11:16:14.953,147461,16222,16917,83368,134435
2025-04-11 11:16:14.966,147463,16224,16916,83363,134422
2025-04-11 11:16:14.974,147481,16229,16920,83367,134438
2025-04-11 11:16:14.986,147481,16230,16923,83356,134434
2025-04-11 11:16:14.994,147481,16232,16920,83354,134436
2025-04-11 11:16:15.014,147498,16236,16929,83358,134455
2025-04-11 11:16:15.016,147491,16240,16931,83363,134425
2025-04-11 11:16:15.027,147509,16249,16936,83363,134439
2025-04-11 11:16:15.034,147517,16254,16943,83398,134475
2025-04-11 11:16:15.046,147529,16259,16947,83401,134494
2025-04-11 11:16:15.055,147547,16265,16951,83423,134501
2025-04-11 11:16:15.079,147543,16273,16955,83421,134515
2025-04-11 11:16:15.081,147563,16277,16960,83429,134543
2025-04-11 11:16:15.086,147570,16287,16967,83446,134538
2025-04-11 11:16:15.094,147589,16291,16969,83455,134532
2025-04-11 11:16:15.106,147591,16291,16978,83456,134561
2025-04-11 11:16:15.118,147594,16296,16980,83474,134577
2025-04-11 11:16:15.125,147608,16295,16983,83484,134583
2025-04-11 11:16:15.145,147616,16305,16992,83503,134594
2025-04-11 11:16:15.146,147616,16302,16989,83508,134588
2025-04-11 11:16:15.158,147621,16301,16998,83509,134615
2025-04-11 11:16:15.166,147633,16307,16996,83515,134608
2025-04-11 11:16:15.178,147636,16309,17000,83514,134605
2025-04-11 11:16:15.185,147637,16308,17006,83503,134589
2025-04-11 11:16:15.211,147644,16313,17007,83500,134589
2025-04-11 11:16:15.212,147632,16308,17016,83491,134580
2025-04-11 11:16:15.218,147645,16314,17012,83498,134578
2025-04-11 11:16:15.225,147645,16318,17019,83493,134601
2025-04-11 11:16:15.237,147648,16317,17024,83504,134579
2025-04-11 11:16:15.246,147653,16316,17028,83502,134581
2025-04-11 11:16:15.258,147659,16314,17030,83501,134604
2025-04-11 11:16:15.275,147656,16321,17038,83505,134613
2025-04-11 11:16:15.278,147667,16326,17036,83511,134618
2025-04-11 11:16:15.286,147675,16329,17045,83510,134636
2025-04-11 11:16:15.298,147686,16332,17045,83523,134629
2025-04-11 11:16:15.307,147690,16337,17048,83505,134624
2025-04-11 11:16:15.318,147701,16339,17056,83506,134608
2025-04-11 11:16:15.341,147709,16338,17056,83516,134626
2025-04-11 11:16:15.342,147683,16344,17059,83500,134641
2025-04-11 11:16:15.347,147680,16341,17059,83495,134633
2025-04-11 11:16:15.358,147689,16344,17056,83505,134645
2025-04-11 11:16:15.370,147666,16343,17053,83506,134651
2025-04-11 11:16:15.378,147662,16353,17050,83500,134636
2025-04-11 11:16:15.406,147647,16349,17046,83499,134604
2025-04-11 11:16:15.407,147647,16341,17041,83489,134608
2025-04-11 11:16:15.410,147638,16343,17030,83476,134594
2025-04-11 11:16:15.418,147623,16339,17027,83472,134604
2025-04-11 11:16:15.430,147625,16337,17020,83466,134609
2025-04-11 11:16:15.438,147622,16329,17013,83467,134583
2025-04-11 11:16:15.450,147612,16328,17008,83471,134571
2025-04-11 11:16:15.470,147592,16324,16996,83465,134571
2025-04-11 11:16:15.472,147604,16324,16994,83459,134589
2025-04-11 11:16:15.478,147588,16317,16993,83462,134573
2025-04-11 11:16:15.490,147585,16313,16988,83451,134595
2025-04-11 11:16:15.498,147591,16312,16984,83448,134574
2025-04-11 11:16:15.510,147592,16305,16983,83453,134571
2025-04-11 11:16:15.518,147581,16305,16983,83445,134539
2025-04-11 11:16:15.537,147590,16302,16986,83444,134584
2025-04-11 11:16:15.538,147596,16301,16982,83434,134561
2025-04-11 11:16:15.550,147597,16300,16984,83428,134562
2025-04-11 11:16:15.558,147594,16296,16981,83444,134541
2025-04-11 11:16:15.570,147601,16300,16985,83437,134557
2025-04-11 11:16:15.578,147605,16299,16990,83441,134568
2025-04-11 11:16:15.602,147597,16300,16991,83446,134556
2025-04-11 11:16:15.604,147603,16301,16997,83441,134577
2025-04-11 11:16:15.611,147610,16306,16997,83445,134575
2025-04-11 11:16:15.622,147611,16307,17003,83446,134563
2025-04-11 11:16:15.630,147623,16311,17004,83457,134572
2025-04-11 11:16:15.642,147625,16310,17008,83444,134576
2025-04-11 11:16:15.650,147595,16314,17010,83451,134584
2025-04-11 11:16:15.667,147603,16313,17008,83454,134591
2025-04-11 11:16:15.670,147608,16313,17006,83442,134564
2025-04-11 11:16:15.682,147599,16315,17007,83445,134578
2025-04-11 11:16:15.690,147591,16315,17005,83435,134560
2025-04-11 11:16:15.694,147591,16315,17005,83435,134560
2025-04-11 11:16:15.701,147591,16308,17006,83442,134564
2025-04-11 11:16:15.710,147594,16309,17001,83433,134565
2025-04-11 11:16:15.730,147589,16306,17003,83442,134574
2025-04-11 11:16:15.732,147597,16309,17004,83427,134550
2025-04-11 11:16:15.742,147605,16304,17000,83428,134555
2025-04-11 11:16:15.750,147588,16303,17000,83427,134550
2025-04-11 11:16:15.762,147600,16302,17001,83431,134540
2025-04-11 11:16:15.770,147595,16302,17001,83432,134559
2025-04-11 11:16:15.797,147602,16301,17003,83434,134566
2025-04-11 11:16:15.798,147584,16299,17006,83424,134544
2025-04-11 11:16:15.802,147587,16302,17003,83425,134541
2025-04-11 11:16:15.810,147604,16298,17007,83434,134555
2025-04-11 11:16:15.821,147612,16305,17010,83438,134590
2025-04-11 11:16:15.830,147613,16306,17011,83437,134587
2025-04-11 11:16:15.842,147622,16307,17015,83451,134604
2025-04-11 11:16:15.863,147628,16309,17017,83452,134610
2025-04-11 11:16:15.864,147627,16312,17016,83458,134598
2025-04-11 11:16:15.870,147636,16308,17017,83460,134590
2025-04-11 11:16:15.882,147626,16312,17017,83448,134596
2025-04-11 11:16:15.894,147632,16306,17018,83435,134573
2025-04-11 11:16:15.902,147635,16312,17018,83439,134575
2025-04-11 11:16:15.929,147632,16313,17018,83446,134585
2025-04-11 11:16:15.930,147633,16316,17019,83433,134580
2025-04-11 11:16:15.934,147631,16323,17020,83449,134586
2025-04-11 11:16:15.942,147623,16322,17018,83445,134596
2025-04-11 11:16:15.954,147612,16328,17019,83445,134600
2025-04-11 11:16:15.962,147597,16322,17012,83449,134604
2025-04-11 11:16:15.974,147594,16323,17005,83453,134605
2025-04-11 11:16:15.994,147588,16318,16997,83448,134592
2025-04-11 11:16:15.995,147576,16315,16987,83440,134580
2025-04-11 11:16:16.003,147565,16304,16978,83437,134592
2025-04-11 11:16:16.013,147560,16300,16971,83443,134578
2025-04-11 11:16:16.022,147563,16292,16968,83431,134562
2025-04-11 11:16:16.034,147559,16288,16962,83429,134577
2025-04-11 11:16:16.041,147560,16285,16956,83426,134577
2025-04-11 11:16:16.058,147562,16283,16962,83439,134564
2025-04-11 11:16:16.061,147560,16270,16953,83415,134569
2025-04-11 11:16:16.074,147560,16273,16958,83414,134559
2025-04-11 11:16:16.081,147563,16272,16954,83414,134569
2025-04-11 11:16:16.094,147573,16268,16951,83404,134558
2025-04-11 11:16:16.102,147566,16269,16956,83418,134564
2025-04-11 11:16:16.122,147596,16266,16959,83406,134543
2025-04-11 11:16:16.126,147586,16271,16963,83395,134542
2025-04-11 11:16:16.134,147588,16275,16968,83407,134554
2025-04-11 11:16:16.146,147600,16274,16970,83400,134552
2025-04-11 11:16:16.153,147613,16287,16976,83410,134585
2025-04-11 11:16:16.166,147622,16286,16981,83411,134590
2025-04-11 11:16:16.188,147617,16289,16984,83430,134598
2025-04-11 11:16:16.190,147617,16299,16984,83431,134593
2025-04-11 11:16:16.194,147616,16297,16990,83414,134588
2025-04-11 11:16:16.206,147633,16300,16992,83419,134614
2025-04-11 11:16:16.213,147618,16306,16993,83431,134622
2025-04-11 11:16:16.226,147638,16312,17000,83434,134614
2025-04-11 11:16:16.234,147635,16319,17001,83421,134606
2025-04-11 11:16:16.257,147636,16323,17001,83430,134602
2025-04-11 11:16:16.259,147617,16320,17003,83432,134615
2025-04-11 11:16:16.265,147647,16323,17008,83438,134630
2025-04-11 11:16:16.273,147637,16327,17008,83451,134627
2025-04-11 11:16:16.286,147638,16327,17009,83452,134634
2025-04-11 11:16:16.294,147641,16332,17011,83458,134648
2025-04-11 11:16:16.306,147655,16331,17009,83471,134643
2025-04-11 11:16:16.325,147649,16336,17013,83484,134659
2025-04-11 11:16:16.327,147655,16331,17014,83465,134654
2025-04-11 11:16:16.334,147665,16333,17018,83480,134657
2025-04-11 11:16:16.346,147660,16331,17012,83477,134675
2025-04-11 11:16:16.354,147641,16328,17015,83471,134657
2025-04-11 11:16:16.366,147640,16331,17015,83487,134647
2025-04-11 11:16:16.391,147653,16327,17018,83457,134655
2025-04-11 11:16:16.393,147652,16328,17015,83478,134637
2025-04-11 11:16:16.397,147655,16323,17019,83468,134654
2025-04-11 11:16:16.406,147664,16326,17022,83457,134628
2025-04-11 11:16:16.417,147649,16324,17021,83467,134639
2025-04-11 11:16:16.425,147653,16323,17017,83463,134660
2025-04-11 11:16:16.438,147657,16322,17020,83460,134637
2025-04-11 11:16:16.455,147665,16323,17018,83447,134624
2025-04-11 11:16:16.458,147639,16322,17021,83443,134631
2025-04-11 11:16:16.465,147658,16324,17019,83436,134633
2025-04-11 11:16:16.477,147652,16321,17017,83423,134640
2025-04-11 11:16:16.486,147646,16324,17021,83423,134634
2025-04-11 11:16:16.497,147646,16321,17016,83420,134617
2025-04-11 11:16:16.501,147646,16321,17016,83420,134617
2025-04-11 11:16:16.519,147639,16324,17015,83422,134578
2025-04-11 11:16:16.521,147620,16327,17003,83413,134595
2025-04-11 11:16:16.525,147598,16330,17000,83410,134594
2025-04-11 11:16:16.538,147600,16327,16997,83409,134601
2025-04-11 11:16:16.545,147582,16333,16993,83395,134599
2025-04-11 11:16:16.558,147564,16327,16984,83421,134590
2025-04-11 11:16:16.566,147559,16326,16976,83412,134580
2025-04-11 11:16:16.585,147540,16321,16969,83418,134585
2025-04-11 11:16:16.586,147521,16314,16961,83405,134580
2025-04-11 11:16:16.598,147519,16303,16951,83381,134568
2025-04-11 11:16:16.606,147528,16289,16942,83367,134532
2025-04-11 11:16:16.617,147510,16282,16934,83362,134534
2025-04-11 11:16:16.629,147508,16276,16932,83351,134520
2025-04-11 11:16:16.649,147514,16266,16932,83345,134518
2025-04-11 11:16:16.651,147507,16265,16927,83364,134541
2025-04-11 11:16:16.658,147518,16262,16930,83361,134525
2025-04-11 11:16:16.669,147535,16261,16929,83368,134527
2025-04-11 11:16:16.678,147547,16257,16936,83376,134547
2025-04-11 11:16:16.689,147541,16263,16936,83387,134556
2025-04-11 11:16:16.697,147552,16262,16942,83393,134573
2025-04-11 11:16:16.716,147540,16262,16939,83396,134569
2025-04-11 11:16:16.718,147569,16263,16945,83398,134575
2025-04-11 11:16:16.730,147548,16268,16944,83402,134596
2025-04-11 11:16:16.737,147585,16268,16950,83409,134594
2025-04-11 11:16:16.750,147572,16269,16950,83389,134586
2025-04-11 11:16:16.758,147579,16272,16952,83393,134587
2025-04-11 11:16:16.781,147580,16279,16956,83409,134616
2025-04-11 11:16:16.783,147589,16284,16963,83411,134598
2025-04-11 11:16:16.790,147603,16285,16963,83413,134607
2025-04-11 11:16:16.797,147612,16289,16968,83419,134639
2025-04-11 11:16:16.809,147595,16290,16971,83429,134632
2025-04-11 11:16:16.818,147605,16295,16968,83426,134624
2025-04-11 11:16:16.830,147609,16294,16972,83403,134638
2025-04-11 11:16:16.846,147593,16293,16969,83418,134607
2025-04-11 11:16:16.849,147601,16291,16967,83420,134613
2025-04-11 11:16:16.857,147598,16298,16969,83409,134631
2025-04-11 11:16:16.869,147603,16298,16971,83402,134630
2025-04-11 11:16:16.882,147608,16297,16971,83400,134609
2025-04-11 11:16:16.889,147623,16295,16976,83403,134622
2025-04-11 11:16:16.910,147600,16307,16976,83411,134626
2025-04-11 11:16:16.912,147620,16306,16982,83415,134640
2025-04-11 11:16:16.921,147646,16307,16982,83428,134635
2025-04-11 11:16:16.929,147647,16312,16987,83423,134653
2025-04-11 11:16:16.941,147642,16313,16990,83441,134665
2025-04-11 11:16:16.949,147637,16315,16989,83433,134660
2025-04-11 11:16:16.976,147657,16316,16991,83434,134651
2025-04-11 11:16:16.977,147653,16316,16993,83420,134665
2025-04-11 11:16:16.982,147638,16318,16997,83436,134660
2025-04-11 11:16:16.990,147669,16324,16998,83428,134660
2025-04-11 11:16:17.001,147657,16324,16997,83436,134659
2025-04-11 11:16:17.010,147659,16328,17002,83438,134661
2025-04-11 11:16:17.021,147661,16333,17006,83449,134673
2025-04-11 11:16:17.048,147662,16330,17010,83451,134677
2025-04-11 11:16:17.049,147659,16335,17006,83455,134676
2025-04-11 11:16:17.051,147641,16332,17010,83435,134658
2025-04-11 11:16:17.061,147632,16333,17002,83442,134659
2025-04-11 11:16:17.069,147621,16328,17001,83419,134638
2025-04-11 11:16:17.082,147590,16320,16994,83407,134622
2025-04-11 11:16:17.090,147573,16320,16983,83404,134611
2025-04-11 11:16:17.117,147584,16313,16974,83391,134591
2025-04-11 11:16:17.118,147563,16305,16963,83393,134589
2025-04-11 11:16:17.121,147549,16296,16957,83369,134571
2025-04-11 11:16:17.134,147543,16290,16946,83381,134576
2025-04-11 11:16:17.141,147522,16283,16936,83363,134553
2025-04-11 11:16:17.153,147520,16268,16923,83355,134563
2025-04-11 11:16:17.161,147502,16259,16912,83360,134552
2025-04-11 11:16:17.188,147502,16249,16911,83358,134564
2025-04-11 11:16:17.190,147509,16248,16902,83339,134547
2025-04-11 11:16:17.194,147496,16240,16896,83338,134526
2025-04-11 11:16:17.202,147502,16233,16895,83339,134523
2025-04-11 11:16:17.214,147513,16229,16891,83335,134542
2025-04-11 11:16:17.221,147489,16231,16892,83328,134517
2025-04-11 11:16:17.234,147493,16229,16893,83336,134528
2025-04-11 11:16:17.261,147541,16225,16895,83330,134533
2025-04-11 11:16:17.263,147521,16232,16900,83337,134546
2025-04-11 11:16:17.265,147541,16230,16901,83327,134543
2025-04-11 11:16:17.273,147536,16232,16903,83338,134567
2025-04-11 11:16:17.281,147534,16238,16912,83355,134563
2025-04-11 11:16:17.293,147538,16238,16907,83362,134564
2025-04-11 11:16:17.301,147539,16244,16909,83351,134582
2025-04-11 11:16:17.330,147548,16245,16912,83353,134582
2025-04-11 11:16:17.332,147553,16250,16915,83353,134576
2025-04-11 11:16:17.334,147567,16248,16922,83365,134587
2025-04-11 11:16:17.342,147565,16255,16924,83365,134589
2025-04-11 11:16:17.353,147567,16256,16925,83354,134560
2025-04-11 11:16:17.361,147549,16259,16926,83359,134597
2025-04-11 11:16:17.373,147568,16263,16929,83372,134601
2025-04-11 11:16:17.396,147562,16263,16925,83360,134615
2025-04-11 11:16:17.398,147565,16264,16929,83374,134602
2025-04-11 11:16:17.406,147569,16266,16932,83374,134595
2025-04-11 11:16:17.414,147573,16271,16930,83387,134609
2025-04-11 11:16:17.426,147579,16271,16937,83388,134626
2025-04-11 11:16:17.433,147569,16273,16937,83378,134630
2025-04-11 11:16:17.444,147579,16272,16940,83384,134639
2025-04-11 11:16:17.462,147592,16277,16945,83385,134637
2025-04-11 11:16:17.465,147610,16280,16948,83404,134636
2025-04-11 11:16:17.473,147602,16284,16952,83386,134636
2025-04-11 11:16:17.484,147613,16289,16951,83411,134646
2025-04-11 11:16:17.493,147612,16290,16952,83407,134654
2025-04-11 11:16:17.505,147625,16294,16955,83401,134665
2025-04-11 11:16:17.509,147625,16294,16955,83401,134665
2025-04-11 11:16:17.528,147632,16295,16966,83410,134674
2025-04-11 11:16:17.530,147630,16302,16968,83410,134664
2025-04-11 11:16:17.533,147645,16310,16967,83424,134690
2025-04-11 11:16:17.545,147652,16310,16974,83437,134715
2025-04-11 11:16:17.553,147655,16319,16978,83453,134723
2025-04-11 11:16:17.566,147654,16321,16982,83446,134710
2025-04-11 11:16:17.573,147651,16328,16984,83448,134728
2025-04-11 11:16:17.596,147655,16327,16984,83444,134714
2025-04-11 11:16:17.598,147662,16336,16988,83439,134712
2025-04-11 11:16:17.606,147656,16336,16987,83447,134712
2025-04-11 11:16:17.613,147647,16331,16987,83436,134694
2025-04-11 11:16:17.625,147646,16333,16986,83435,134685
2025-04-11 11:16:17.633,147614,16328,16983,83438,134674
2025-04-11 11:16:17.662,147620,16329,16979,83419,134664
2025-04-11 11:16:17.664,147590,16317,16967,83423,134663
2025-04-11 11:16:17.665,147586,16319,16962,83411,134682
2025-04-11 11:16:17.677,147575,16310,16949,83425,134643
2025-04-11 11:16:17.685,147555,16301,16938,83411,134642
2025-04-11 11:16:17.697,147547,16291,16924,83399,134647
2025-04-11 11:16:17.705,147539,16280,16917,83404,134643
2025-04-11 11:16:17.727,147534,16269,16903,83387,134605
2025-04-11 11:16:17.729,147518,16256,16897,83380,134617
2025-04-11 11:16:17.738,147523,16248,16890,83380,134590
2025-04-11 11:16:17.745,147499,16241,16886,83375,134601
2025-04-11 11:16:17.757,147518,16238,16884,83377,134598
2025-04-11 11:16:17.765,147527,16236,16879,83382,134603
2025-04-11 11:16:17.777,147519,16228,16880,83380,134610
2025-04-11 11:16:17.795,147519,16226,16877,83372,134615
2025-04-11 11:16:17.797,147528,16226,16876,83383,134607
2025-04-11 11:16:17.806,147513,16224,16874,83376,134613
2025-04-11 11:16:17.817,147543,16225,16877,83371,134622
2025-04-11 11:16:17.825,147529,16227,16880,83378,134601
2025-04-11 11:16:17.837,147516,16226,16880,83363,134600
2025-04-11 11:16:17.862,147523,16227,16881,83361,134614
2025-04-11 11:16:17.864,147533,16227,16879,83369,134604
2025-04-11 11:16:17.865,147532,16226,16884,83354,134598
2025-04-11 11:16:17.877,147526,16228,16886,83363,134603
2025-04-11 11:16:17.884,147540,16230,16883,83358,134607
2025-04-11 11:16:17.897,147539,16239,16885,83367,134607
2025-04-11 11:16:17.909,147540,16234,16883,83361,134635
2025-04-11 11:16:17.927,147518,16234,16884,83356,134594
2025-04-11 11:16:17.929,147530,16239,16882,83360,134606
2025-04-11 11:16:17.937,147512,16238,16880,83362,134603
2025-04-11 11:16:17.949,147516,16241,16878,83349,134613
2025-04-11 11:16:17.956,147511,16238,16879,83347,134600
2025-04-11 11:16:17.969,147500,16238,16875,83356,134588
2025-04-11 11:16:17.993,147494,16231,16875,83352,134608
2025-04-11 11:16:17.994,147514,16230,16876,83346,134604
2025-04-11 11:16:17.997,147500,16230,16875,83349,134593
2025-04-11 11:16:18.009,147514,16230,16876,83334,134603
2025-04-11 11:16:18.017,147504,16229,16874,83335,134589
2025-04-11 11:16:18.030,147505,16233,16871,83335,134584
2025-04-11 11:16:18.037,147491,16235,16877,83339,134591
2025-04-11 11:16:18.058,147504,16234,16879,83352,134587
2025-04-11 11:16:18.059,147517,16234,16878,83345,134614
2025-04-11 11:16:18.069,147509,16238,16878,83345,134602
2025-04-11 11:16:18.077,147517,16237,16882,83348,134603
2025-04-11 11:16:18.089,147525,16237,16881,83342,134595
2025-04-11 11:16:18.096,147527,16239,16887,83330,134602
2025-04-11 11:16:18.122,147528,16244,16891,83340,134599
2025-04-11 11:16:18.123,147539,16245,16894,83347,134614
2025-04-11 11:16:18.129,147551,16248,16902,83360,134623
2025-04-11 11:16:18.138,147543,16249,16905,83371,134630
2025-04-11 11:16:18.148,147551,16251,16907,83369,134636
2025-04-11 11:16:18.160,147559,16251,16911,83381,134648
2025-04-11 11:16:18.169,147562,16252,16910,83383,134637
2025-04-11 11:16:18.188,147565,16257,16919,83375,134637
2025-04-11 11:16:18.189,147572,16253,16916,83374,134630
2025-04-11 11:16:18.201,147559,16252,16914,83372,134629
2025-04-11 11:16:18.210,147545,16250,16913,83356,134639
2025-04-11 11:16:18.220,147539,16252,16912,83349,134634
2025-04-11 11:16:18.229,147544,16250,16908,83342,134615
2025-04-11 11:16:18.253,147523,16244,16901,83346,134607
2025-04-11 11:16:18.254,147512,16245,16898,83340,134611
2025-04-11 11:16:18.260,147512,16238,16886,83341,134588
2025-04-11 11:16:18.269,147487,16237,16878,83336,134597
2025-04-11 11:16:18.280,147486,16231,16870,83336,134578
2025-04-11 11:16:18.289,147466,16221,16860,83329,134583
2025-04-11 11:16:18.301,147466,16217,16855,83339,134569
2025-04-11 11:16:18.319,147466,16210,16849,83326,134579
2025-04-11 11:16:18.320,147466,16210,16849,83326,134579
2025-04-11 11:16:18.321,147466,16203,16837,83334,134592
2025-04-11 11:16:18.329,147456,16201,16835,83343,134559
2025-04-11 11:16:18.341,147459,16197,16834,83336,134572
2025-04-11 11:16:18.349,147474,16194,16833,83337,134568
2025-04-11 11:16:18.360,147481,16191,16834,83338,134591
2025-04-11 11:16:18.383,147487,16192,16835,83342,134590
2025-04-11 11:16:18.384,147492,16197,16841,83340,134595
2025-04-11 11:16:18.389,147481,16191,16837,83346,134590
2025-04-11 11:16:18.401,147486,16195,16841,83352,134604
2025-04-11 11:16:18.413,147495,16200,16845,83348,134586
2025-04-11 11:16:18.421,147500,16198,16848,83347,134595
2025-04-11 11:16:18.447,147521,16201,16848,83351,134591
2025-04-11 11:16:18.448,147511,16201,16858,83355,134620
2025-04-11 11:16:18.452,147536,16206,16860,83350,134609
2025-04-11 11:16:18.461,147527,16214,16863,83354,134615
2025-04-11 11:16:18.472,147550,16214,16866,83369,134623
2025-04-11 11:16:18.481,147539,16213,16871,83368,134641
2025-04-11 11:16:18.492,147547,16220,16870,83369,134637
2025-04-11 11:16:18.513,147553,16223,16870,83367,134628
2025-04-11 11:16:18.515,147546,16217,16874,83377,134621
2025-04-11 11:16:18.522,147544,16224,16878,83361,134652
2025-04-11 11:16:18.532,147542,16230,16875,83376,134659
2025-04-11 11:16:18.540,147558,16228,16873,83374,134639
2025-04-11 11:16:18.553,147573,16227,16877,83386,134641
2025-04-11 11:16:18.560,147574,16230,16883,83382,134672
2025-04-11 11:16:18.577,147573,16237,16884,83386,134653
2025-04-11 11:16:18.581,147592,16238,16889,83393,134659
2025-04-11 11:16:18.593,147588,16240,16891,83396,134662
2025-04-11 11:16:18.600,147589,16244,16897,83416,134669
2025-04-11 11:16:18.613,147606,16247,16900,83397,134669
2025-04-11 11:16:18.621,147607,16251,16903,83415,134682
2025-04-11 11:16:18.642,147601,16250,16902,83399,134677
2025-04-11 11:16:18.644,147601,16253,16905,83390,134681
2025-04-11 11:16:18.653,147614,16254,16911,83389,134668
2025-04-11 11:16:18.664,147619,16256,16914,83394,134656
2025-04-11 11:16:18.673,147634,16262,16911,83392,134680
2025-04-11 11:16:18.684,147647,16266,16923,83402,134689
2025-04-11 11:16:18.708,147647,16266,16923,83402,134689
2025-04-11 11:16:18.710,147652,16276,16926,83404,134711
2025-04-11 11:16:18.713,147644,16281,16935,83417,134715
2025-04-11 11:16:18.716,147644,16281,16935,83417,134715
2025-04-11 11:16:18.724,147633,16286,16942,83426,134712
2025-04-11 11:16:18.732,147649,16288,16939,83429,134700
2025-04-11 11:16:18.745,147660,16291,16941,83426,134706
2025-04-11 11:16:18.752,147666,16290,16940,83419,134709
2025-04-11 11:16:18.774,147650,16288,16943,83412,134703
2025-04-11 11:16:18.776,147654,16288,16944,83412,134718
2025-04-11 11:16:18.784,147658,16293,16949,83406,134686
2025-04-11 11:16:18.793,147646,16289,16949,83408,134708
2025-04-11 11:16:18.805,147657,16289,16952,83409,134724
2025-04-11 11:16:18.813,147652,16291,16956,83404,134712
2025-04-11 11:16:18.838,147663,16293,16959,83425,134699
2025-04-11 11:16:18.840,147651,16289,16950,83427,134709
2025-04-11 11:16:18.844,147624,16296,16946,83426,134712
2025-04-11 11:16:18.853,147631,16286,16942,83415,134712
2025-04-11 11:16:18.864,147617,16285,16937,83406,134686
2025-04-11 11:16:18.873,147596,16275,16927,83398,134690
2025-04-11 11:16:18.884,147584,16273,16915,83394,134681
2025-04-11 11:16:18.903,147586,16270,16911,83382,134656
2025-04-11 11:16:18.905,147586,16264,16899,83382,134672
2025-04-11 11:16:18.916,147584,16259,16899,83382,134683
2025-04-11 11:16:18.924,147579,16254,16891,83395,134687
2025-04-11 11:16:18.936,147622,16251,16889,83395,134700
2025-04-11 11:16:18.944,147604,16246,16891,83402,134721
2025-04-11 11:16:18.967,147614,16243,16888,83406,134708
2025-04-11 11:16:18.969,147591,16237,16880,83406,134682
2025-04-11 11:16:18.976,147621,16237,16879,83405,134688
2025-04-11 11:16:18.984,147628,16234,16880,83408,134697
2025-04-11 11:16:18.997,147633,16237,16882,83398,134696
2025-04-11 11:16:19.004,147625,16237,16887,83405,134693
2025-04-11 11:16:19.037,147627,16242,16889,83399,134699
2025-04-11 11:16:19.038,147655,16241,16892,83416,134718
2025-04-11 11:16:19.040,147651,16244,16892,83406,134712
2025-04-11 11:16:19.044,147653,16247,16894,83418,134734
2025-04-11 11:16:19.056,147660,16254,16897,83424,134724
2025-04-11 11:16:19.065,147659,16247,16900,83430,134733
2025-04-11 11:16:19.077,147659,16253,16905,83428,134734
2025-04-11 11:16:19.084,147667,16261,16905,83436,134746
2025-04-11 11:16:19.109,147662,16260,16909,83432,134743
2025-04-11 11:16:19.111,147679,16264,16913,83450,134770
2025-04-11 11:16:19.116,147666,16263,16911,83444,134746
2025-04-11 11:16:19.125,147661,16266,16907,83435,134755
2025-04-11 11:16:19.136,147665,16261,16907,83424,134734
2025-04-11 11:16:19.144,147675,16257,16903,83425,134738
2025-04-11 11:16:19.157,147653,16258,16903,83412,134727
2025-04-11 11:16:19.176,147657,16258,16900,83405,134720
2025-04-11 11:16:19.177,147657,16263,16901,83396,134708
2025-04-11 11:16:19.189,147642,16268,16906,83398,134722
2025-04-11 11:16:19.196,147625,16276,16907,83403,134720
2025-04-11 11:16:19.208,147620,16277,16907,83413,134719
2025-04-11 11:16:19.215,147628,16280,16910,83408,134704
2025-04-11 11:16:19.241,147632,16282,16909,83407,134731
2025-04-11 11:16:19.243,147648,16285,16914,83411,134728
2025-04-11 11:16:19.249,147632,16289,16911,83404,134719
2025-04-11 11:16:19.256,147626,16293,16915,83412,134727
2025-04-11 11:16:19.268,147625,16298,16917,83425,134731
2025-04-11 11:16:19.277,147621,16302,16923,83418,134729
2025-04-11 11:16:19.288,147637,16299,16924,83415,134709
2025-04-11 11:16:19.309,147637,16306,16925,83409,134733
2025-04-11 11:16:19.311,147648,16302,16930,83410,134723
2025-04-11 11:16:19.320,147644,16300,16936,83423,134742
2025-04-11 11:16:19.321,147644,16300,16936,83423,134742
2025-04-11 11:16:19.329,147663,16308,16946,83440,134761
2025-04-11 11:16:19.336,147686,16312,16944,83453,134776
2025-04-11 11:16:19.348,147686,16310,16946,83458,134764
2025-04-11 11:16:19.356,147689,16309,16951,83452,134794
2025-04-11 11:16:19.374,147682,16312,16957,83459,134774
2025-04-11 11:16:19.376,147703,16310,16957,83455,134779
2025-04-11 11:16:19.389,147701,16311,16952,83460,134782
2025-04-11 11:16:19.396,147704,16309,16956,83456,134785
2025-04-11 11:16:19.408,147708,16311,16960,83455,134798
2025-04-11 11:16:19.419,147715,16319,16963,83465,134801
2025-04-11 11:16:19.437,147738,16316,16966,83465,134801
2025-04-11 11:16:19.440,147738,16319,16970,83485,134847
2025-04-11 11:16:19.448,147748,16325,16976,83492,134840
2025-04-11 11:16:19.460,147751,16327,16979,83489,134853
2025-04-11 11:16:19.468,147746,16333,16986,83500,134854
2025-04-11 11:16:19.481,147772,16328,16988,83508,134856
2025-04-11 11:16:19.503,147784,16336,16990,83509,134872
2025-04-11 11:16:19.504,147786,16344,16998,83493,134887
2025-04-11 11:16:19.509,147781,16348,17002,83507,134871
2025-04-11 11:16:19.520,147790,16354,17004,83508,134903
2025-04-11 11:16:19.528,147821,16357,17012,83514,134909
2025-04-11 11:16:19.539,147810,16358,17013,83516,134908
2025-04-11 11:16:19.548,147819,16364,17014,83516,134916
2025-04-11 11:16:19.569,147801,16363,17014,83506,134902
2025-04-11 11:16:19.570,147787,16364,17011,83504,134925
2025-04-11 11:16:19.580,147789,16372,17012,83492,134900
2025-04-11 11:16:19.588,147775,16375,17003,83496,134878
2025-04-11 11:16:19.601,147780,16371,16998,83486,134889
2025-04-11 11:16:19.608,147779,16371,16990,83482,134883
2025-04-11 11:16:19.633,147757,16366,16979,83467,134887
2025-04-11 11:16:19.635,147751,16365,16972,83468,134855
2025-04-11 11:16:19.640,147748,16363,16965,83470,134850
2025-04-11 11:16:19.649,147738,16361,16965,83456,134871
2025-04-11 11:16:19.660,147725,16354,16957,83466,134856
2025-04-11 11:16:19.671,147728,16350,16957,83465,134841
2025-04-11 11:16:19.680,147733,16348,16954,83465,134840
2025-04-11 11:16:19.698,147743,16345,16957,83461,134859
2025-04-11 11:16:19.699,147740,16337,16956,83461,134845
2025-04-11 11:16:19.713,147751,16344,16959,83471,134858
2025-04-11 11:16:19.719,147738,16339,16959,83466,134864
2025-04-11 11:16:19.732,147739,16340,16961,83466,134857
2025-04-11 11:16:19.740,147758,16338,16964,83473,134887
2025-04-11 11:16:19.763,147752,16344,16968,83464,134877
2025-04-11 11:16:19.764,147765,16344,16971,83468,134872
2025-04-11 11:16:19.773,147770,16345,16969,83472,134870
2025-04-11 11:16:19.780,147751,16347,16972,83462,134883
2025-04-11 11:16:19.793,147752,16349,16973,83471,134856
2025-04-11 11:16:19.800,147742,16352,16970,83456,134859
2025-04-11 11:16:19.812,147746,16348,16973,83440,134861
2025-04-11 11:16:19.830,147752,16346,16974,83452,134857
2025-04-11 11:16:19.832,147756,16350,16976,83447,134838
2025-04-11 11:16:19.840,147762,16348,16973,83439,134844
2025-04-11 11:16:19.852,147753,16350,16977,83444,134848
2025-04-11 11:16:19.860,147759,16349,16976,83448,134867
2025-04-11 11:16:19.872,147763,16353,16981,83448,134869
2025-04-11 11:16:19.916,147768,16353,16974,83449,134876
2025-04-11 11:16:19.918,147751,16353,16977,83452,134841
2025-04-11 11:16:19.919,147741,16352,16978,83439,134865
2025-04-11 11:16:19.921,147751,16353,16975,83443,134845
2025-04-11 11:16:19.924,147750,16355,16979,83441,134856
2025-04-11 11:16:19.932,147760,16355,16981,83450,134853
2025-04-11 11:16:19.944,147755,16353,16984,83460,134876
2025-04-11 11:16:20.000,147772,16357,16985,83443,134854
2025-04-11 11:16:20.001,147770,16352,16985,83452,134866
2025-04-11 11:16:20.002,147791,16354,16993,83448,134862
2025-04-11 11:16:20.004,147779,16354,16989,83452,134860
2025-04-11 11:16:20.005,147781,16362,16996,83452,134890
2025-04-11 11:16:20.006,147798,16362,16999,83473,134877
2025-04-11 11:16:20.012,147791,16359,17001,83470,134897
2025-04-11 11:16:20.025,147804,16369,17007,83473,134906
2025-04-11 11:16:20.032,147817,16374,17010,83482,134901
2025-04-11 11:16:20.044,147794,16367,17016,83477,134922
2025-04-11 11:16:20.070,147819,16375,17019,83478,134910
2025-04-11 11:16:20.072,147813,16378,17018,83480,134901
2025-04-11 11:16:20.073,147818,16378,17023,83486,134925
2025-04-11 11:16:20.084,147827,16383,17020,83490,134928
2025-04-11 11:16:20.092,147822,16384,17024,83489,134928
2025-04-11 11:16:20.104,147817,16384,17023,83474,134917
2025-04-11 11:16:20.113,147833,16383,17027,83487,134925
2025-04-11 11:16:20.138,147852,16381,17029,83487,134932
2025-04-11 11:16:20.140,147852,16381,17029,83487,134932
2025-04-11 11:16:20.141,147837,16383,17039,83490,134935
2025-04-11 11:16:20.144,147830,16389,17038,83486,134926
2025-04-11 11:16:20.156,147829,16387,17037,83490,134923
2025-04-11 11:16:20.164,147831,16391,17038,83486,134924
2025-04-11 11:16:20.176,147848,16386,17038,83487,134906
