Timestamp,PPG1,PPG2,PPG3,PPG4,PPG5
2025-04-11 10:14:08.034,125,192,74,104,81
2025-04-11 10:14:08.072,130,194,79,101,83
2025-04-11 10:14:08.075,130,193,76,102,83
2025-04-11 10:14:08.076,131,193,72,103,80
2025-04-11 10:14:08.077,126,194,77,101,83
2025-04-11 10:14:08.078,126,192,74,105,80
2025-04-11 10:14:08.079,127,194,76,102,84
2025-04-11 10:14:08.081,129,194,76,100,85
2025-04-11 10:14:08.083,126,186,77,104,82
2025-04-11 10:14:08.084,130,189,75,103,79
2025-04-11 10:14:08.085,127,192,76,101,82
2025-04-11 10:14:08.086,125,191,78,103,83
2025-04-11 10:14:08.088,128,188,76,102,80
2025-04-11 10:14:08.089,134,191,75,102,87
2025-04-11 10:14:08.090,130,190,75,103,81
2025-04-11 10:14:08.091,123,192,77,102,85
2025-04-11 10:14:08.094,129,191,76,100,86
2025-04-11 10:14:08.107,127,189,78,103,80
2025-04-11 10:14:08.114,129,190,80,105,82
2025-04-11 10:14:08.490,129,198,77,105,78
2025-04-11 10:14:08.492,130,195,80,103,83
2025-04-11 10:14:08.494,126,191,78,102,86
2025-04-11 10:14:08.495,132,195,78,105,88
2025-04-11 10:14:08.496,130,189,74,103,83
2025-04-11 10:14:08.499,128,186,78,101,86
2025-04-11 10:14:08.500,131,190,79,104,84
2025-04-11 10:14:08.502,127,188,76,100,81
2025-04-11 10:14:08.503,126,186,76,103,82
2025-04-11 10:14:08.504,124,182,72,101,80
2025-04-11 10:14:08.505,122,177,73,98,79
2025-04-11 10:14:08.507,119,177,75,95,79
2025-04-11 10:14:08.508,114,173,73,96,70
2025-04-11 10:14:08.510,114,168,73,94,79
2025-04-11 10:14:08.511,111,169,73,88,74
2025-04-11 10:14:08.512,112,164,66,85,70
2025-04-11 10:14:08.513,108,162,67,89,67
2025-04-11 10:14:08.514,106,158,65,81,68
2025-04-11 10:14:08.515,103,153,65,82,67
2025-04-11 10:14:08.516,101,142,65,79,65
2025-04-11 10:14:08.518,100,139,64,80,68
2025-04-11 10:14:08.519,95,134,66,78,67
2025-04-11 10:14:08.520,95,138,65,77,61
2025-04-11 10:14:08.521,92,128,61,76,59
2025-04-11 10:14:08.522,85,127,62,75,57
2025-04-11 10:14:08.522,88,122,61,67,60
2025-04-11 10:14:08.523,87,114,62,72,56
2025-04-11 10:14:08.524,81,117,57,70,58
2025-04-11 10:14:08.525,81,113,60,71,55
2025-04-11 10:14:08.525,83,106,61,69,53
2025-04-11 10:14:08.526,82,101,56,70,53
2025-04-11 10:14:08.527,79,102,57,68,56
2025-04-11 10:14:08.527,77,98,62,66,55
2025-04-11 10:14:08.528,78,94,60,65,50
2025-04-11 10:14:08.529,79,93,57,66,55
2025-04-11 10:14:08.529,77,88,62,68,54
2025-04-11 10:14:08.530,73,89,59,67,56
2025-04-11 10:14:08.531,77,86,61,62,50
2025-04-11 10:14:08.531,72,86,60,66,55
2025-04-11 10:14:08.532,71,82,57,65,50
2025-04-11 10:14:08.532,71,84,56,65,57
2025-04-11 10:14:08.549,72,77,56,64,56
2025-04-11 10:14:08.550,77,78,61,63,53
2025-04-11 10:14:08.558,73,80,56,63,50
2025-04-11 10:14:08.571,69,79,57,63,55
2025-04-11 10:14:08.572,69,79,57,63,55
2025-04-11 10:14:08.577,70,78,52,65,53
2025-04-11 10:14:08.590,73,80,58,64,55
2025-04-11 10:14:08.598,72,74,60,64,58
2025-04-11 10:14:08.613,74,74,59,66,54
2025-04-11 10:14:08.618,70,70,60,66,55
2025-04-11 10:14:08.630,73,75,59,65,50
2025-04-11 10:14:08.638,65,73,58,63,52
2025-04-11 10:14:08.649,71,75,56,63,52
2025-04-11 10:14:08.658,71,72,53,70,51
2025-04-11 10:14:08.676,68,76,57,63,54
2025-04-11 10:14:08.678,74,74,57,65,53
2025-04-11 10:14:08.689,72,74,53,67,51
2025-04-11 10:14:08.698,74,75,60,63,53
2025-04-11 10:14:08.710,67,80,60,61,53
2025-04-11 10:14:08.722,71,72,57,66,51
2025-04-11 10:14:08.739,74,74,56,62,50
2025-04-11 10:14:08.742,77,78,60,62,52
2025-04-11 10:14:08.750,70,75,59,68,51
2025-04-11 10:14:08.762,73,78,60,64,50
2025-04-11 10:14:08.770,70,78,60,64,49
2025-04-11 10:14:08.781,73,80,62,64,52
2025-04-11 10:14:08.802,71,78,57,69,50
2025-04-11 10:14:08.804,76,81,59,64,55
2025-04-11 10:14:08.810,76,81,61,65,53
2025-04-11 10:14:08.821,76,84,62,64,56
2025-04-11 10:14:08.829,76,78,59,67,53
2025-04-11 10:14:08.842,75,84,61,67,54
2025-04-11 10:14:08.849,79,83,58,65,55
2025-04-11 10:14:08.865,73,83,57,65,56
2025-04-11 10:14:08.870,71,83,60,65,55
2025-04-11 10:14:08.882,75,89,56,64,54
2025-04-11 10:14:08.890,75,90,62,67,56
2025-04-11 10:14:08.902,75,92,64,69,54
2025-04-11 10:14:08.909,83,89,61,70,55
2025-04-11 10:14:08.928,78,86,58,66,53
2025-04-11 10:14:08.930,79,93,58,68,52
2025-04-11 10:14:08.941,77,92,59,66,58
2025-04-11 10:14:08.950,78,93,61,68,54
2025-04-11 10:14:08.962,81,91,58,67,54
2025-04-11 10:14:08.974,80,99,61,66,59
2025-04-11 10:14:08.991,80,91,59,67,55
2025-04-11 10:14:08.994,79,97,58,67,55
2025-04-11 10:14:09.002,80,96,59,71,53
2025-04-11 10:14:09.014,82,92,63,69,55
2025-04-11 10:14:09.022,82,97,58,69,59
2025-04-11 10:14:09.033,78,97,63,69,59
2025-04-11 10:14:09.055,78,95,62,68,59
2025-04-11 10:14:09.056,83,93,63,69,56
2025-04-11 10:14:09.062,81,96,67,71,56
2025-04-11 10:14:09.074,76,95,63,69,61
2025-04-11 10:14:09.081,82,104,62,67,57
2025-04-11 10:14:09.094,79,97,63,70,54
2025-04-11 10:14:09.101,82,96,57,75,55
2025-04-11 10:14:09.118,81,103,61,68,57
2025-04-11 10:14:09.122,78,96,62,73,59
2025-04-11 10:14:09.133,80,98,63,66,59
2025-04-11 10:14:09.141,84,100,62,76,63
2025-04-11 10:14:09.154,83,100,66,71,57
2025-04-11 10:14:09.162,82,99,67,67,61
2025-04-11 10:14:09.180,85,101,58,70,56
2025-04-11 10:14:09.182,77,96,58,69,57
2025-04-11 10:14:09.194,84,102,61,70,57
2025-04-11 10:14:09.201,82,100,61,69,59
2025-04-11 10:14:09.214,85,98,62,69,58
2025-04-11 10:14:09.225,78,101,63,69,58
2025-04-11 10:14:09.246,87,98,63,70,57
2025-04-11 10:14:09.247,85,97,59,68,58
2025-04-11 10:14:09.254,80,96,59,67,58
2025-04-11 10:14:09.265,79,97,62,73,59
2025-04-11 10:14:09.274,84,98,62,73,57
2025-04-11 10:14:09.285,87,95,63,71,58
2025-04-11 10:14:09.293,85,98,63,71,54
2025-04-11 10:14:09.309,82,100,59,69,59
2025-04-11 10:14:09.313,84,99,64,70,55
2025-04-11 10:14:09.325,80,96,63,72,56
2025-04-11 10:14:09.334,81,97,62,71,53
2025-04-11 10:14:09.346,83,94,63,70,57
2025-04-11 10:14:09.353,85,97,66,70,57
2025-04-11 10:14:09.372,85,100,60,71,58
2025-04-11 10:14:09.378,84,98,61,71,60
2025-04-11 10:14:09.379,84,98,61,71,60
2025-04-11 10:14:09.386,82,95,59,72,61
2025-04-11 10:14:09.393,86,96,62,70,59
2025-04-11 10:14:09.405,80,95,63,73,55
2025-04-11 10:14:09.414,80,100,64,68,59
2025-04-11 10:14:09.436,83,98,62,69,61
2025-04-11 10:14:09.437,81,95,60,67,58
2025-04-11 10:14:09.445,86,96,61,75,57
2025-04-11 10:14:09.453,84,99,64,72,58
2025-04-11 10:14:09.465,84,96,59,71,53
2025-04-11 10:14:09.473,83,98,62,72,57
2025-04-11 10:14:09.485,87,102,64,69,61
2025-04-11 10:14:09.499,84,101,63,73,57
2025-04-11 10:14:09.505,82,98,59,69,57
2025-04-11 10:14:09.517,83,97,64,70,59
2025-04-11 10:14:09.525,84,97,64,71,58
2025-04-11 10:14:09.537,86,101,59,73,59
2025-04-11 10:14:09.545,82,100,60,69,58
2025-04-11 10:14:09.563,83,103,63,75,56
2025-04-11 10:14:09.566,88,97,65,69,58
2025-04-11 10:14:09.577,82,100,65,71,58
2025-04-11 10:14:09.585,82,103,66,72,56
2025-04-11 10:14:09.597,82,103,65,72,60
2025-04-11 10:14:09.605,86,103,63,69,59
2025-04-11 10:14:09.626,84,100,62,75,56
2025-04-11 10:14:09.628,86,107,61,74,55
2025-04-11 10:14:09.637,84,105,63,73,59
2025-04-11 10:14:09.646,87,104,63,74,58
2025-04-11 10:14:09.657,83,104,62,69,56
2025-04-11 10:14:09.665,88,101,63,69,56
2025-04-11 10:14:09.691,84,99,65,74,59
2025-04-11 10:14:09.692,87,107,60,74,58
2025-04-11 10:14:09.697,85,106,60,74,57
2025-04-11 10:14:09.706,85,105,65,71,60
2025-04-11 10:14:09.717,93,107,62,72,59
2025-04-11 10:14:09.725,86,110,62,71,59
2025-04-11 10:14:09.738,86,106,64,72,60
2025-04-11 10:14:09.754,84,104,64,69,52
2025-04-11 10:14:09.757,86,108,62,72,56
2025-04-11 10:14:09.764,84,108,64,70,61
2025-04-11 10:14:09.777,87,109,67,71,55
2025-04-11 10:14:09.785,82,110,60,70,60
2025-04-11 10:14:09.798,91,105,63,73,57
2025-04-11 10:14:09.818,91,111,65,71,59
2025-04-11 10:14:09.819,84,108,66,73,60
2025-04-11 10:14:09.829,88,111,64,71,60
2025-04-11 10:14:09.837,84,109,62,75,58
2025-04-11 10:14:09.850,90,112,64,73,59
2025-04-11 10:14:09.857,85,108,63,71,58
2025-04-11 10:14:09.883,88,110,63,72,60
2025-04-11 10:14:09.885,89,113,65,71,59
2025-04-11 10:14:09.889,86,110,64,70,64
2025-04-11 10:14:09.897,88,111,60,74,58
2025-04-11 10:14:09.909,87,111,64,73,59
2025-04-11 10:14:09.918,86,111,63,70,62
2025-04-11 10:14:09.930,85,112,61,70,56
2025-04-11 10:14:09.949,87,109,64,74,51
2025-04-11 10:14:09.950,88,112,60,70,59
2025-04-11 10:14:09.958,85,106,64,76,62
2025-04-11 10:14:09.968,87,111,61,70,61
2025-04-11 10:14:09.977,89,112,64,67,60
2025-04-11 10:14:09.989,88,117,59,73,61
2025-04-11 10:14:09.997,86,112,66,72,59
2025-04-11 10:14:10.014,83,114,60,75,61
2025-04-11 10:14:10.017,85,116,65,73,60
2025-04-11 10:14:10.028,88,113,69,73,52
2025-04-11 10:14:10.037,90,116,60,73,58
2025-04-11 10:14:10.050,88,114,62,77,61
2025-04-11 10:14:10.057,85,113,63,73,62
2025-04-11 10:14:10.078,87,115,64,72,61
2025-04-11 10:14:10.080,84,114,66,70,59
2025-04-11 10:14:10.089,87,116,61,71,59
2025-04-11 10:14:10.097,88,113,63,72,56
2025-04-11 10:14:10.109,88,115,60,75,59
2025-04-11 10:14:10.117,84,116,65,74,57
2025-04-11 10:14:10.143,88,114,64,75,60
2025-04-11 10:14:10.144,86,113,64,70,59
2025-04-11 10:14:10.149,90,113,63,73,59
2025-04-11 10:14:10.161,85,118,62,71,62
2025-04-11 10:14:10.170,90,115,63,71,61
2025-04-11 10:14:10.181,85,120,65,73,58
2025-04-11 10:14:10.189,92,115,65,71,64
2025-04-11 10:14:10.207,91,118,64,73,61
2025-04-11 10:14:10.209,91,120,64,76,57
2025-04-11 10:14:10.221,92,117,62,77,62
2025-04-11 10:14:10.229,91,120,67,75,58
2025-04-11 10:14:10.241,87,122,66,71,60
2025-04-11 10:14:10.249,91,122,63,70,63
2025-04-11 10:14:10.321,94,117,63,73,64
2025-04-11 10:14:10.323,89,120,68,73,61
2025-04-11 10:14:10.324,91,124,67,79,61
2025-04-11 10:14:10.324,92,122,59,75,66
2025-04-11 10:14:10.325,91,120,67,74,57
2025-04-11 10:14:10.326,92,120,63,76,62
2025-04-11 10:14:10.327,92,125,70,75,61
2025-04-11 10:14:10.329,94,121,64,79,59
2025-04-11 10:14:10.341,95,124,67,73,60
2025-04-11 10:14:10.349,97,125,64,76,63
2025-04-11 10:14:10.361,95,123,65,74,62
2025-04-11 10:14:10.369,97,128,64,78,66
2025-04-11 10:14:10.399,96,126,66,73,66
2025-04-11 10:14:10.401,96,126,66,73,66
2025-04-11 10:14:10.403,94,128,64,74,63
2025-04-11 10:14:10.404,94,127,65,76,64
2025-04-11 10:14:10.409,99,128,64,73,65
2025-04-11 10:14:10.420,98,127,66,76,61
2025-04-11 10:14:10.428,95,130,66,78,61
2025-04-11 10:14:10.441,100,128,63,77,60
2025-04-11 10:14:10.460,94,127,63,74,63
2025-04-11 10:14:10.462,94,124,59,76,64
2025-04-11 10:14:10.473,95,126,68,79,65
2025-04-11 10:14:10.480,98,129,64,73,63
2025-04-11 10:14:10.493,95,128,65,79,68
2025-04-11 10:14:10.501,97,124,67,75,63
2025-04-11 10:14:10.527,95,127,66,73,60
2025-04-11 10:14:10.528,95,126,61,79,66
2025-04-11 10:14:10.532,95,131,68,78,61
2025-04-11 10:14:10.540,94,128,65,79,60
2025-04-11 10:14:10.553,100,125,65,80,61
2025-04-11 10:14:10.561,95,128,67,75,61
2025-04-11 10:14:10.573,99,128,65,75,58
2025-04-11 10:14:10.594,93,126,63,78,65
2025-04-11 10:14:10.595,98,128,63,76,61
2025-04-11 10:14:10.600,95,132,66,73,61
2025-04-11 10:14:10.613,98,127,73,81,63
2025-04-11 10:14:10.620,96,129,66,74,64
2025-04-11 10:14:10.633,99,132,67,80,60
2025-04-11 10:14:10.641,97,129,66,76,64
2025-04-11 10:14:10.658,99,126,67,77,62
2025-04-11 10:14:10.661,98,130,64,77,64
2025-04-11 10:14:10.672,95,130,67,75,64
2025-04-11 10:14:10.681,97,131,67,76,65
2025-04-11 10:14:10.692,94,131,65,77,61
2025-04-11 10:14:10.701,98,125,65,75,57
2025-04-11 10:14:10.723,97,125,65,79,66
2025-04-11 10:14:10.724,97,126,62,81,62
2025-04-11 10:14:10.732,101,129,63,80,61
2025-04-11 10:14:10.740,96,127,64,77,60
2025-04-11 10:14:10.752,98,133,66,76,62
2025-04-11 10:14:10.760,97,128,66,75,63
2025-04-11 10:14:10.772,97,131,67,75,64
2025-04-11 10:14:10.788,94,127,66,80,64
2025-04-11 10:14:10.792,102,135,65,74,61
2025-04-11 10:14:10.804,99,132,69,75,63
2025-04-11 10:14:10.812,96,135,71,80,66
2025-04-11 10:14:10.825,103,135,61,77,64
2025-04-11 10:14:10.832,99,133,66,78,66
2025-04-11 10:14:10.851,101,137,65,81,66
2025-04-11 10:14:10.852,100,136,63,81,62
2025-04-11 10:14:10.864,98,135,68,80,65
2025-04-11 10:14:10.872,99,132,65,79,66
2025-04-11 10:14:10.884,98,136,65,75,64
2025-04-11 10:14:10.893,97,135,65,78,62
2025-04-11 10:14:10.915,96,135,67,72,62
2025-04-11 10:14:10.916,96,133,66,74,63
2025-04-11 10:14:10.924,97,134,66,81,63
2025-04-11 10:14:10.932,95,137,65,77,62
2025-04-11 10:14:10.945,93,130,66,76,64
2025-04-11 10:14:10.952,95,131,63,77,59
2025-04-11 10:14:10.978,97,130,63,75,59
2025-04-11 10:14:10.979,99,128,65,73,62
2025-04-11 10:14:10.985,97,132,64,79,62
2025-04-11 10:14:10.992,96,131,66,80,61
2025-04-11 10:14:11.004,97,128,67,78,61
2025-04-11 10:14:11.013,95,133,65,75,62
2025-04-11 10:14:11.024,97,132,64,74,60
2025-04-11 10:14:11.042,92,130,66,74,64
2025-04-11 10:14:11.044,93,132,63,74,61
2025-04-11 10:14:11.053,95,133,63,74,63
2025-04-11 10:14:11.064,97,129,64,78,65
2025-04-11 10:14:11.072,91,129,64,79,65
2025-04-11 10:14:11.084,96,130,67,78,63
2025-04-11 10:14:11.105,94,129,64,77,66
2025-04-11 10:14:11.106,95,128,64,78,58
2025-04-11 10:14:11.116,95,132,66,75,62
2025-04-11 10:14:11.124,95,131,63,75,60
2025-04-11 10:14:11.136,91,129,64,77,64
2025-04-11 10:14:11.144,95,131,68,75,59
2025-04-11 10:14:11.169,89,125,63,73,60
2025-04-11 10:14:11.171,94,128,63,74,60
2025-04-11 10:14:11.177,95,123,64,75,63
2025-04-11 10:14:11.184,97,124,66,76,61
2025-04-11 10:14:11.196,94,130,63,75,60
2025-04-11 10:14:11.204,93,133,63,76,60
2025-04-11 10:14:11.216,92,127,63,75,60
2025-04-11 10:14:11.233,89,123,63,74,63
2025-04-11 10:14:11.236,95,127,62,76,58
2025-04-11 10:14:11.244,91,125,67,73,60
2025-04-11 10:14:11.256,90,126,63,74,62
2025-04-11 10:14:11.264,91,127,62,75,61
2025-04-11 10:14:11.275,88,124,65,72,61
2025-04-11 10:14:11.296,93,128,61,75,58
2025-04-11 10:14:11.298,89,128,66,72,59
2025-04-11 10:14:11.304,92,128,63,74,63
2025-04-11 10:14:11.315,90,123,62,76,63
2025-04-11 10:14:11.324,88,126,60,72,63
2025-04-11 10:14:11.335,89,124,65,74,61
2025-04-11 10:14:11.344,91,125,59,72,57
2025-04-11 10:14:11.359,90,124,65,74,62
2025-04-11 10:14:11.364,90,127,67,75,61
2025-04-11 10:14:11.376,92,122,64,74,62
2025-04-11 10:14:11.388,91,125,66,74,60
2025-04-11 10:14:11.389,91,125,66,74,60
2025-04-11 10:14:11.396,88,125,61,72,62
2025-04-11 10:14:11.403,92,123,63,73,56
2025-04-11 10:14:11.423,89,125,66,74,61
2025-04-11 10:14:11.427,89,121,65,76,60
2025-04-11 10:14:11.436,93,123,62,76,61
2025-04-11 10:14:11.448,90,120,62,76,56
2025-04-11 10:14:11.456,92,123,59,73,57
2025-04-11 10:14:11.468,87,122,61,75,60
2025-04-11 10:14:11.486,89,121,66,72,54
2025-04-11 10:14:11.488,89,122,62,72,62
2025-04-11 10:14:11.495,90,125,65,71,59
2025-04-11 10:14:11.508,94,122,61,69,57
2025-04-11 10:14:11.515,88,116,67,74,58
2025-04-11 10:14:11.528,86,122,61,73,65
2025-04-11 10:14:11.548,86,120,66,75,60
2025-04-11 10:14:11.550,85,122,64,70,58
2025-04-11 10:14:11.557,87,119,66,70,59
2025-04-11 10:14:11.568,87,123,64,72,59
2025-04-11 10:14:11.576,89,117,67,73,60
2025-04-11 10:14:11.588,86,118,64,73,61
2025-04-11 10:14:11.595,86,118,61,72,55
2025-04-11 10:14:11.612,87,120,65,73,58
2025-04-11 10:14:11.616,86,119,63,70,60
2025-04-11 10:14:11.627,89,114,61,74,59
2025-04-11 10:14:11.636,88,116,62,72,60
2025-04-11 10:14:11.648,84,121,62,69,59
2025-04-11 10:14:11.656,91,118,59,73,58
2025-04-11 10:14:11.677,89,119,59,76,60
2025-04-11 10:14:11.679,87,119,61,72,61
2025-04-11 10:14:11.687,88,117,58,74,58
2025-04-11 10:14:11.696,88,113,64,71,63
2025-04-11 10:14:11.707,85,117,62,70,59
2025-04-11 10:14:11.716,82,111,63,72,56
2025-04-11 10:14:11.741,85,115,63,68,61
2025-04-11 10:14:11.742,84,112,62,73,57
2025-04-11 10:14:11.748,81,117,62,68,61
2025-04-11 10:14:11.759,84,116,63,70,61
2025-04-11 10:14:11.767,87,113,60,71,59
2025-04-11 10:14:11.780,89,113,61,72,56
2025-04-11 10:14:11.788,85,115,62,67,63
2025-04-11 10:14:11.804,84,108,63,70,56
2025-04-11 10:14:11.807,87,113,61,77,58
2025-04-11 10:14:11.819,83,109,66,71,58
2025-04-11 10:14:11.827,80,113,64,72,60
2025-04-11 10:14:11.839,87,114,65,67,58
2025-04-11 10:14:11.848,84,114,62,69,55
2025-04-11 10:14:11.867,85,111,60,75,58
2025-04-11 10:14:11.869,83,116,62,68,54
2025-04-11 10:14:11.880,81,110,66,72,55
2025-04-11 10:14:11.888,85,114,61,71,57
2025-04-11 10:14:11.899,83,114,63,75,58
2025-04-11 10:14:11.908,86,114,60,70,60
2025-04-11 10:14:11.932,84,112,61,70,58
2025-04-11 10:14:11.934,88,114,61,70,59
2025-04-11 10:14:11.939,83,108,64,69,56
2025-04-11 10:14:11.948,88,106,62,68,58
2025-04-11 10:14:11.960,80,113,63,74,60
2025-04-11 10:14:11.967,84,109,65,70,55
2025-04-11 10:14:11.980,81,110,63,70,60
2025-04-11 10:14:11.996,85,110,60,71,58
2025-04-11 10:14:11.999,85,110,64,72,57
2025-04-11 10:14:12.008,82,109,61,70,56
2025-04-11 10:14:12.019,81,110,59,72,56
2025-04-11 10:14:12.027,85,111,62,73,58
2025-04-11 10:14:12.040,81,108,61,72,57
2025-04-11 10:14:12.059,80,108,59,68,55
2025-04-11 10:14:12.060,82,106,63,70,56
2025-04-11 10:14:12.067,80,108,60,72,60
2025-04-11 10:14:12.079,85,107,65,66,56
2025-04-11 10:14:12.091,81,109,61,65,56
2025-04-11 10:14:12.100,79,107,59,72,59
2025-04-11 10:14:12.121,81,107,62,69,58
2025-04-11 10:14:12.122,77,110,62,69,58
2025-04-11 10:14:12.131,85,111,66,70,57
2025-04-11 10:14:12.139,83,107,58,70,59
2025-04-11 10:14:12.151,84,109,61,71,55
2025-04-11 10:14:12.159,83,107,63,71,55
2025-04-11 10:14:12.186,84,106,61,73,55
2025-04-11 10:14:12.187,81,107,61,71,56
2025-04-11 10:14:12.192,81,107,56,74,56
2025-04-11 10:14:12.193,81,107,56,74,56
2025-04-11 10:14:12.199,79,107,58,72,55
2025-04-11 10:14:12.211,82,108,63,71,57
2025-04-11 10:14:12.220,80,110,66,68,55
2025-04-11 10:14:12.231,82,110,59,71,57
2025-04-11 10:14:12.248,83,110,65,71,57
2025-04-11 10:14:12.251,82,111,63,69,57
2025-04-11 10:14:12.259,80,109,62,67,56
2025-04-11 10:14:12.270,80,109,62,69,56
2025-04-11 10:14:12.279,79,107,62,67,59
2025-04-11 10:14:12.291,84,109,62,73,56
2025-04-11 10:14:12.311,81,109,62,71,55
2025-04-11 10:14:12.312,80,107,63,72,57
2025-04-11 10:14:12.319,87,113,61,71,57
2025-04-11 10:14:12.331,86,111,59,72,56
2025-04-11 10:14:12.339,82,116,60,68,52
2025-04-11 10:14:12.351,81,115,63,68,54
2025-04-11 10:14:12.359,83,109,62,70,58
2025-04-11 10:14:12.374,81,114,62,69,61
2025-04-11 10:14:12.379,84,115,62,68,55
2025-04-11 10:14:12.390,83,112,63,76,60
2025-04-11 10:14:12.399,84,116,64,72,57
2025-04-11 10:14:12.410,85,114,62,70,59
2025-04-11 10:14:12.423,88,114,64,70,57
2025-04-11 10:14:12.438,85,114,62,73,54
2025-04-11 10:14:12.442,89,115,66,71,56
2025-04-11 10:14:12.452,82,112,67,73,58
2025-04-11 10:14:12.463,83,112,61,73,56
2025-04-11 10:14:12.471,85,112,64,72,55
2025-04-11 10:14:12.482,89,114,58,75,59
2025-04-11 10:14:12.500,84,114,64,67,56
2025-04-11 10:14:12.503,85,111,63,70,60
2025-04-11 10:14:12.511,88,110,63,71,57
2025-04-11 10:14:12.523,88,111,63,71,57
2025-04-11 10:14:12.531,85,109,60,73,55
2025-04-11 10:14:12.542,87,110,64,73,59
2025-04-11 10:14:12.562,84,113,62,72,60
2025-04-11 10:14:12.563,85,112,64,71,61
2025-04-11 10:14:12.570,84,107,59,73,56
2025-04-11 10:14:12.583,86,111,61,73,60
2025-04-11 10:14:12.591,84,109,62,70,57
2025-04-11 10:14:12.603,89,111,65,69,59
2025-04-11 10:14:12.610,89,113,62,74,61
2025-04-11 10:14:12.626,87,109,64,73,58
2025-04-11 10:14:12.631,88,109,63,72,62
2025-04-11 10:14:12.642,86,112,63,72,57
2025-04-11 10:14:12.650,91,115,60,70,58
2025-04-11 10:14:12.663,86,109,60,69,60
2025-04-11 10:14:12.671,89,110,64,73,58
2025-04-11 10:14:12.689,92,112,65,70,60
2025-04-11 10:14:12.691,93,111,60,69,57
2025-04-11 10:14:12.702,89,112,61,77,60
2025-04-11 10:14:12.710,90,107,63,73,57
2025-04-11 10:14:12.722,88,112,69,73,61
2025-04-11 10:14:12.731,93,115,63,69,59
2025-04-11 10:14:12.752,86,110,59,73,63
2025-04-11 10:14:12.755,86,113,66,69,61
2025-04-11 10:14:12.762,90,113,61,72,57
2025-04-11 10:14:12.775,86,109,63,72,59
2025-04-11 10:14:12.782,90,106,61,69,59
2025-04-11 10:14:12.795,85,108,61,70,55
2025-04-11 10:14:12.815,87,109,60,74,59
2025-04-11 10:14:12.817,89,106,64,69,56
2025-04-11 10:14:12.822,90,106,66,71,56
2025-04-11 10:14:12.834,88,103,63,72,61
2025-04-11 10:14:12.842,96,106,63,78,56
2025-04-11 10:14:12.854,85,104,65,72,57
2025-04-11 10:14:12.863,86,102,64,72,52
2025-04-11 10:14:12.878,89,106,63,69,59
2025-04-11 10:14:12.882,90,107,65,71,55
2025-04-11 10:14:12.894,86,101,62,71,55
2025-04-11 10:14:12.920,86,106,63,69,59
2025-04-11 10:14:12.921,84,103,61,70,62
2025-04-11 10:14:12.923,85,106,63,72,55
2025-04-11 10:14:12.942,87,102,61,72,59
2025-04-11 10:14:12.943,88,103,58,73,56
2025-04-11 10:14:12.955,88,101,67,72,60
2025-04-11 10:14:12.962,86,103,64,66,58
2025-04-11 10:14:12.974,83,106,63,71,55
2025-04-11 10:14:12.981,84,107,61,69,56
2025-04-11 10:14:13.005,87,101,63,72,56
2025-04-11 10:14:13.006,83,103,61,70,58
2025-04-11 10:14:13.014,85,101,61,71,59
2025-04-11 10:14:13.022,86,104,66,72,56
2025-04-11 10:14:13.035,85,104,63,71,57
2025-04-11 10:14:13.042,84,108,63,69,61
2025-04-11 10:14:13.054,90,105,59,71,58
2025-04-11 10:14:13.068,90,110,63,71,61
2025-04-11 10:14:13.074,87,106,64,71,59
2025-04-11 10:14:13.086,92,107,60,72,58
2025-04-11 10:14:13.095,86,103,64,73,59
2025-04-11 10:14:13.106,93,105,65,72,60
2025-04-11 10:14:13.115,88,111,59,71,59
2025-04-11 10:14:13.130,83,103,63,67,62
2025-04-11 10:14:13.134,89,106,64,73,56
2025-04-11 10:14:13.146,90,108,60,72,58
2025-04-11 10:14:13.154,88,104,60,69,59
2025-04-11 10:14:13.166,89,106,64,70,55
2025-04-11 10:14:13.174,83,110,67,73,57
2025-04-11 10:14:13.193,89,105,60,73,54
2025-04-11 10:14:13.198,85,107,61,70,55
2025-04-11 10:14:13.199,85,107,61,70,55
2025-04-11 10:14:13.207,86,107,62,72,58
2025-04-11 10:14:13.214,89,106,64,76,59
2025-04-11 10:14:13.226,86,106,63,73,56
2025-04-11 10:14:13.233,86,107,66,73,57
2025-04-11 10:14:13.256,89,109,60,73,53
2025-04-11 10:14:13.257,84,109,61,70,58
2025-04-11 10:14:13.266,88,113,63,72,57
2025-04-11 10:14:13.274,89,106,62,71,60
2025-04-11 10:14:13.287,88,109,63,73,59
2025-04-11 10:14:13.294,88,107,65,76,57
2025-04-11 10:14:13.319,86,109,59,69,57
2025-04-11 10:14:13.320,86,106,62,77,57
2025-04-11 10:14:13.326,90,108,63,70,57
2025-04-11 10:14:13.333,86,107,63,74,55
2025-04-11 10:14:13.346,87,109,64,72,54
2025-04-11 10:14:13.354,88,109,61,69,59
2025-04-11 10:14:13.366,84,106,61,72,57
2025-04-11 10:14:13.382,87,103,60,70,60
2025-04-11 10:14:13.386,88,109,63,69,54
2025-04-11 10:14:13.397,88,105,64,73,57
2025-04-11 10:14:13.406,91,104,64,74,58
2025-04-11 10:14:13.418,91,108,62,69,62
2025-04-11 10:14:13.425,88,106,66,72,56
2025-04-11 10:14:13.445,87,107,64,70,63
2025-04-11 10:14:13.446,92,105,62,70,57
2025-04-11 10:14:13.458,84,107,61,74,56
2025-04-11 10:14:13.465,89,108,63,74,59
2025-04-11 10:14:13.477,88,107,64,71,56
2025-04-11 10:14:13.486,88,105,65,70,56
2025-04-11 10:14:13.507,89,108,62,73,57
2025-04-11 10:14:13.508,88,109,63,70,55
2025-04-11 10:14:13.517,83,105,63,73,58
2025-04-11 10:14:13.525,86,108,61,72,57
2025-04-11 10:14:13.538,87,106,62,71,58
2025-04-11 10:14:13.545,86,108,65,73,59
2025-04-11 10:14:13.572,86,104,64,74,57
2025-04-11 10:14:13.574,89,109,63,74,55
2025-04-11 10:14:13.578,86,108,61,73,58
2025-04-11 10:14:13.585,84,107,63,69,56
2025-04-11 10:14:13.597,89,108,60,68,57
2025-04-11 10:14:13.606,85,108,69,75,58
2025-04-11 10:14:13.618,88,105,62,72,58
2025-04-11 10:14:13.637,87,107,55,75,59
2025-04-11 10:14:13.638,90,109,63,75,58
2025-04-11 10:14:13.646,85,108,62,74,60
2025-04-11 10:14:13.657,84,111,64,71,61
2025-04-11 10:14:13.665,86,113,65,70,59
2025-04-11 10:14:13.678,91,110,64,71,59
2025-04-11 10:14:13.686,91,109,65,74,58
2025-04-11 10:14:13.701,84,113,62,71,59
2025-04-11 10:14:13.710,88,113,67,75,56
2025-04-11 10:14:13.717,88,111,63,72,62
2025-04-11 10:14:13.729,89,114,63,73,59
2025-04-11 10:14:13.738,87,115,64,69,60
2025-04-11 10:14:13.749,92,110,60,74,54
2025-04-11 10:14:13.765,91,114,60,73,61
2025-04-11 10:14:13.770,90,118,65,74,62
2025-04-11 10:14:13.777,91,114,65,72,56
2025-04-11 10:14:13.790,91,117,67,70,58
2025-04-11 10:14:13.797,91,115,65,71,61
2025-04-11 10:14:13.809,93,115,64,74,60
2025-04-11 10:14:13.827,93,120,62,72,62
2025-04-11 10:14:13.829,92,120,69,71,56
2025-04-11 10:14:13.838,92,124,62,71,58
2025-04-11 10:14:13.849,94,119,64,74,60
2025-04-11 10:14:13.857,93,119,65,79,57
2025-04-11 10:14:13.870,98,123,68,73,62
2025-04-11 10:14:13.890,93,120,66,76,61
2025-04-11 10:14:13.891,97,120,66,75,62
2025-04-11 10:14:13.897,95,124,66,73,62
2025-04-11 10:14:13.909,91,125,65,73,60
2025-04-11 10:14:13.918,101,127,63,78,63
2025-04-11 10:14:13.930,98,127,65,75,61
2025-04-11 10:14:13.937,95,127,66,83,60
2025-04-11 10:14:13.952,98,127,66,77,64
2025-04-11 10:14:13.957,100,129,67,75,62
2025-04-11 10:14:13.969,98,128,61,77,64
2025-04-11 10:14:13.978,98,127,66,79,61
2025-04-11 10:14:13.990,98,131,65,77,62
2025-04-11 10:14:14.001,98,127,67,78,62
2025-04-11 10:14:14.016,96,126,67,76,67
2025-04-11 10:14:14.021,102,127,68,79,61
2025-04-11 10:14:14.029,100,129,69,79,66
2025-04-11 10:14:14.041,100,124,65,78,62
2025-04-11 10:14:14.050,99,132,67,77,63
2025-04-11 10:14:14.060,101,127,64,80,66
2025-04-11 10:14:14.079,98,126,67,79,61
2025-04-11 10:14:14.081,99,130,66,80,65
2025-04-11 10:14:14.089,100,129,66,79,63
2025-04-11 10:14:14.101,101,127,64,78,62
2025-04-11 10:14:14.109,99,129,65,77,64
2025-04-11 10:14:14.121,100,128,69,78,68
2025-04-11 10:14:14.142,101,133,69,76,67
2025-04-11 10:14:14.144,104,133,69,81,60
2025-04-11 10:14:14.149,100,130,69,76,65
2025-04-11 10:14:14.161,104,128,66,83,67
2025-04-11 10:14:14.170,100,131,67,75,63
2025-04-11 10:14:14.182,98,132,62,79,66
2025-04-11 10:14:14.189,100,133,64,76,64
2025-04-11 10:14:14.205,97,128,68,77,65
2025-04-11 10:14:14.207,97,128,68,77,65
2025-04-11 10:14:14.210,98,128,65,73,58
2025-04-11 10:14:14.221,100,128,64,77,62
2025-04-11 10:14:14.229,102,126,66,76,65
2025-04-11 10:14:14.241,100,128,63,78,61
2025-04-11 10:14:14.249,99,128,67,79,65
2025-04-11 10:14:14.269,96,129,67,79,63
2025-04-11 10:14:14.270,97,126,68,81,63
2025-04-11 10:14:14.282,98,125,68,76,67
2025-04-11 10:14:14.293,103,125,70,77,63
2025-04-11 10:14:14.300,97,127,66,77,61
2025-04-11 10:14:14.313,100,127,69,79,65
2025-04-11 10:14:14.332,99,122,60,79,60
2025-04-11 10:14:14.333,100,124,67,81,64
2025-04-11 10:14:14.341,96,125,68,77,62
2025-04-11 10:14:14.353,99,125,66,76,61
2025-04-11 10:14:14.361,100,128,66,75,62
2025-04-11 10:14:14.372,100,126,67,78,63
2025-04-11 10:14:14.395,101,127,64,77,63
2025-04-11 10:14:14.396,98,125,64,79,63
2025-04-11 10:14:14.401,100,122,65,77,62
2025-04-11 10:14:14.412,98,124,68,75,62
2025-04-11 10:14:14.421,93,124,65,77,60
2025-04-11 10:14:14.433,96,125,63,79,60
2025-04-11 10:14:14.441,96,128,67,75,61
2025-04-11 10:14:14.459,98,121,63,73,61
2025-04-11 10:14:14.462,99,126,65,79,63
2025-04-11 10:14:14.473,96,125,63,79,61
2025-04-11 10:14:14.481,98,123,62,74,63
2025-04-11 10:14:14.493,98,129,68,78,59
2025-04-11 10:14:14.501,100,128,62,75,63
2025-04-11 10:14:14.523,100,124,66,74,65
2025-04-11 10:14:14.524,100,124,66,74,63
2025-04-11 10:14:14.533,96,128,67,75,64
2025-04-11 10:14:14.541,99,124,65,75,62
2025-04-11 10:14:14.552,98,124,65,83,63
2025-04-11 10:14:14.561,99,129,61,77,63
2025-04-11 10:14:14.586,98,123,63,77,61
2025-04-11 10:14:14.587,100,128,66,78,64
2025-04-11 10:14:14.592,101,125,67,78,63
2025-04-11 10:14:14.605,98,126,65,75,63
2025-04-11 10:14:14.613,98,127,67,74,66
2025-04-11 10:14:14.624,99,128,68,75,66
2025-04-11 10:14:14.633,99,132,62,79,63
2025-04-11 10:14:14.648,97,127,62,75,65
2025-04-11 10:14:14.652,103,124,67,76,65
2025-04-11 10:14:14.664,101,128,64,74,62
2025-04-11 10:14:14.673,101,131,63,74,61
2025-04-11 10:14:14.685,99,129,65,80,63
2025-04-11 10:14:14.692,101,129,68,77,65
2025-04-11 10:14:14.710,102,128,67,77,65
2025-04-11 10:14:14.712,102,129,66,81,64
2025-04-11 10:14:14.725,99,128,68,74,64
2025-04-11 10:14:14.733,106,131,65,76,62
2025-04-11 10:14:14.745,101,131,66,78,66
2025-04-11 10:14:14.753,96,131,64,76,64
2025-04-11 10:14:14.774,104,128,63,78,62
2025-04-11 10:14:14.775,102,127,65,78,65
2025-04-11 10:14:14.785,101,132,65,79,62
2025-04-11 10:14:14.793,100,130,71,82,60
2025-04-11 10:14:14.805,102,131,66,80,64
2025-04-11 10:14:14.812,100,129,65,82,63
2025-04-11 10:14:14.839,103,125,71,82,62
2025-04-11 10:14:14.840,101,130,64,79,65
2025-04-11 10:14:14.845,104,132,67,78,65
2025-04-11 10:14:14.857,101,132,66,80,66
2025-04-11 10:14:14.865,104,131,62,79,66
2025-04-11 10:14:14.877,106,131,67,85,69
2025-04-11 10:14:14.884,105,136,67,77,63
2025-04-11 10:14:14.901,101,132,67,76,63
2025-04-11 10:14:14.905,104,132,66,81,64
2025-04-11 10:14:14.917,101,135,66,76,68
2025-04-11 10:14:14.924,101,132,68,76,66
2025-04-11 10:14:14.937,101,130,63,78,64
2025-04-11 10:14:14.944,107,129,67,78,64
2025-04-11 10:14:14.964,101,133,67,78,59
2025-04-11 10:14:14.965,102,130,66,77,61
2025-04-11 10:14:14.976,101,125,64,78,62
2025-04-11 10:14:14.985,100,128,68,73,65
2025-04-11 10:14:14.997,100,129,69,78,61
2025-04-11 10:14:15.008,98,127,63,79,66
2025-04-11 10:14:15.009,98,127,63,79,66
2025-04-11 10:14:15.026,98,127,63,79,66
2025-04-11 10:14:15.028,98,130,66,74,64
2025-04-11 10:14:15.036,103,131,63,76,62
2025-04-11 10:14:15.044,100,130,65,79,62
2025-04-11 10:14:15.056,102,127,61,80,62
2025-04-11 10:14:15.065,99,125,67,78,56
2025-04-11 10:14:15.089,98,127,67,78,60
2025-04-11 10:14:15.091,100,129,65,79,61
2025-04-11 10:14:15.097,100,126,67,78,62
2025-04-11 10:14:15.108,101,126,67,79,61
2025-04-11 10:14:15.117,105,129,67,75,62
2025-04-11 10:14:15.128,103,128,64,81,60
2025-04-11 10:14:15.136,101,128,68,75,62
2025-04-11 10:14:15.152,99,128,64,78,68
2025-04-11 10:14:15.157,103,127,65,75,64
2025-04-11 10:14:15.168,101,131,67,76,63
2025-04-11 10:14:15.177,100,126,67,78,61
2025-04-11 10:14:15.188,103,131,66,76,67
2025-04-11 10:14:15.195,100,132,62,75,65
2025-04-11 10:14:15.216,102,129,60,76,66
2025-04-11 10:14:15.217,102,129,60,76,66
2025-04-11 10:14:15.218,101,129,67,78,64
2025-04-11 10:14:15.228,104,128,67,77,59
2025-04-11 10:14:15.237,101,130,66,78,63
2025-04-11 10:14:15.249,100,133,62,78,64
2025-04-11 10:14:15.256,100,128,67,78,64
2025-04-11 10:14:15.279,101,130,63,79,65
2025-04-11 10:14:15.281,101,130,67,80,65
2025-04-11 10:14:15.288,101,128,65,73,64
2025-04-11 10:14:15.296,101,130,66,78,60
2025-04-11 10:14:15.308,100,131,66,80,63
2025-04-11 10:14:15.321,101,127,70,75,62
2025-04-11 10:14:15.328,101,131,68,78,59
2025-04-11 10:14:15.343,99,125,67,75,67
2025-04-11 10:14:15.348,98,132,70,77,63
2025-04-11 10:14:15.360,99,129,64,77,62
2025-04-11 10:14:15.369,101,126,66,79,63
2025-04-11 10:14:15.380,102,128,66,75,66
2025-04-11 10:14:15.388,100,129,62,77,62
2025-04-11 10:14:15.407,102,126,68,75,62
2025-04-11 10:14:15.408,99,127,65,74,61
2025-04-11 10:14:15.420,98,128,63,77,62
2025-04-11 10:14:15.427,97,129,69,77,62
2025-04-11 10:14:15.440,101,130,65,76,63
2025-04-11 10:14:15.448,99,129,65,76,63
2025-04-11 10:14:15.472,100,131,70,78,65
2025-04-11 10:14:15.473,100,131,66,77,63
2025-04-11 10:14:15.480,99,127,65,75,62
2025-04-11 10:14:15.488,99,131,69,77,60
2025-04-11 10:14:15.500,97,129,65,79,59
2025-04-11 10:14:15.508,102,131,65,77,59
2025-04-11 10:14:15.520,98,134,68,78,66
2025-04-11 10:14:15.535,100,132,63,73,59
2025-04-11 10:14:15.540,99,134,65,77,60
2025-04-11 10:14:15.548,98,133,63,79,65
2025-04-11 10:14:15.560,99,135,68,76,62
2025-04-11 10:14:15.568,99,128,64,77,64
2025-04-11 10:14:15.580,100,132,67,79,60
2025-04-11 10:14:15.598,99,128,64,77,62
2025-04-11 10:14:15.600,98,130,65,77,59
2025-04-11 10:14:15.612,100,132,69,75,65
2025-04-11 10:14:15.620,95,131,65,79,63
2025-04-11 10:14:15.631,96,136,66,80,60
2025-04-11 10:14:15.641,97,127,69,74,59
2025-04-11 10:14:15.662,98,134,66,79,62
2025-04-11 10:14:15.663,98,131,63,77,64
2025-04-11 10:14:15.672,97,135,65,74,62
2025-04-11 10:14:15.680,96,129,68,75,59
2025-04-11 10:14:15.692,98,127,65,77,63
2025-04-11 10:14:15.700,99,134,65,76,64
2025-04-11 10:14:15.725,96,135,66,76,62
2025-04-11 10:14:15.726,97,133,66,75,61
2025-04-11 10:14:15.732,94,128,66,73,61
2025-04-11 10:14:15.739,95,132,66,76,61
2025-04-11 10:14:15.751,101,128,64,74,60
2025-04-11 10:14:15.760,93,129,63,74,61
2025-04-11 10:14:15.771,95,124,67,74,65
2025-04-11 10:14:15.787,92,128,64,73,61
2025-04-11 10:14:15.792,93,128,65,76,58
2025-04-11 10:14:15.799,91,126,63,76,58
2025-04-11 10:14:15.811,91,126,65,71,58
2025-04-11 10:14:15.820,91,125,65,73,58
2025-04-11 10:14:15.831,89,125,60,75,57
2025-04-11 10:14:15.852,89,119,65,75,57
2025-04-11 10:14:15.853,85,120,61,72,56
2025-04-11 10:14:15.860,88,119,61,71,57
2025-04-11 10:14:15.872,83,117,64,70,59
2025-04-11 10:14:15.880,84,115,65,70,58
2025-04-11 10:14:15.892,80,113,61,68,57
2025-04-11 10:14:15.899,82,114,61,70,55
2025-04-11 10:14:15.916,77,110,57,69,57
2025-04-11 10:14:15.919,79,111,59,65,55
2025-04-11 10:14:15.931,81,108,62,64,54
2025-04-11 10:14:15.943,80,109,60,65,56
2025-04-11 10:14:15.952,78,109,61,66,54
2025-04-11 10:14:15.963,77,106,57,72,56
2025-04-11 10:14:15.978,73,108,57,65,56
2025-04-11 10:14:15.984,75,110,62,67,54
2025-04-11 10:14:15.991,76,110,61,66,55
2025-04-11 10:14:16.003,79,106,61,66,54
2025-04-11 10:14:16.011,72,105,60,66,54
2025-04-11 10:14:16.015,72,105,60,66,54
2025-04-11 10:14:16.023,75,105,61,64,55
2025-04-11 10:14:16.041,76,106,58,68,60
2025-04-11 10:14:16.043,77,103,57,64,57
2025-04-11 10:14:16.052,77,108,60,66,55
2025-04-11 10:14:16.063,75,109,59,62,50
2025-04-11 10:14:16.072,75,105,59,67,55
2025-04-11 10:14:16.084,77,107,59,67,47
2025-04-11 10:14:16.105,75,107,62,63,54
2025-04-11 10:14:16.106,68,104,61,62,53
2025-04-11 10:14:16.112,75,104,59,65,55
2025-04-11 10:14:16.123,72,105,56,65,52
2025-04-11 10:14:16.131,73,104,60,65,50
2025-04-11 10:14:16.143,74,103,60,63,54
2025-04-11 10:14:16.151,72,107,57,64,51
2025-04-11 10:14:16.168,73,106,54,62,54
2025-04-11 10:14:16.172,69,105,62,63,53
2025-04-11 10:14:16.183,78,107,53,64,56
2025-04-11 10:14:16.192,74,106,61,66,52
2025-04-11 10:14:16.203,74,104,55,61,48
2025-04-11 10:14:16.216,75,103,60,64,53
2025-04-11 10:14:16.233,71,104,58,63,53
2025-04-11 10:14:16.234,69,105,58,62,52
2025-04-11 10:14:16.243,71,99,58,65,52
2025-04-11 10:14:16.256,73,102,59,63,50
2025-04-11 10:14:16.263,73,100,53,59,48
2025-04-11 10:14:16.275,70,103,56,63,52
2025-04-11 10:14:16.295,72,102,55,60,48
2025-04-11 10:14:16.297,72,101,58,64,54
2025-04-11 10:14:16.303,72,105,59,66,49
2025-04-11 10:14:16.315,70,98,56,66,54
2025-04-11 10:14:16.323,73,106,59,66,51
2025-04-11 10:14:16.335,73,102,62,64,53
2025-04-11 10:14:16.343,76,102,61,66,55
2025-04-11 10:14:16.358,72,105,61,66,54
2025-04-11 10:14:16.364,73,104,61,62,51
2025-04-11 10:14:16.375,73,102,61,65,51
2025-04-11 10:14:16.384,72,101,62,62,52
2025-04-11 10:14:16.394,77,105,61,65,50
2025-04-11 10:14:16.403,70,105,56,66,56
2025-04-11 10:14:16.421,76,104,57,62,51
2025-04-11 10:14:16.422,71,106,63,65,52
2025-04-11 10:14:16.435,76,107,58,65,51
2025-04-11 10:14:16.443,72,109,56,67,54
2025-04-11 10:14:16.455,74,104,57,64,52
2025-04-11 10:14:16.463,71,103,58,62,55
2025-04-11 10:14:16.484,74,106,60,61,51
2025-04-11 10:14:16.485,68,106,59,64,52
2025-04-11 10:14:16.495,74,109,56,62,52
2025-04-11 10:14:16.502,72,104,59,66,51
2025-04-11 10:14:16.515,78,102,61,63,54
2025-04-11 10:14:16.524,74,111,54,65,52
2025-04-11 10:14:16.547,79,107,59,63,54
2025-04-11 10:14:16.548,73,105,58,66,51
2025-04-11 10:14:16.554,74,105,56,60,55
2025-04-11 10:14:16.563,75,107,58,63,55
2025-04-11 10:14:16.575,76,108,57,66,55
2025-04-11 10:14:16.587,76,103,60,67,52
2025-04-11 10:14:16.595,75,106,59,65,57
2025-04-11 10:14:16.615,75,102,53,62,54
2025-04-11 10:14:16.616,72,107,59,63,51
2025-04-11 10:14:16.627,71,105,55,67,54
2025-04-11 10:14:16.635,75,104,58,65,53
2025-04-11 10:14:16.647,75,108,58,67,57
2025-04-11 10:14:16.655,73,106,59,62,50
2025-04-11 10:14:16.677,77,104,54,70,53
2025-04-11 10:14:16.678,75,107,64,64,52
2025-04-11 10:14:16.688,74,106,57,66,53
2025-04-11 10:14:16.695,77,105,63,67,49
2025-04-11 10:14:16.707,77,106,56,66,51
2025-04-11 10:14:16.715,74,106,61,65,54
2025-04-11 10:14:16.727,76,106,60,65,56
2025-04-11 10:14:16.742,79,108,60,65,49
2025-04-11 10:14:16.747,72,109,57,67,51
2025-04-11 10:14:16.755,78,108,56,63,54
2025-04-11 10:14:16.767,77,109,58,64,52
2025-04-11 10:14:16.775,73,106,60,64,53
2025-04-11 10:14:16.786,78,104,62,63,54
2025-04-11 10:14:16.807,76,106,60,65,55
2025-04-11 10:14:16.809,71,107,57,68,54
2025-04-11 10:14:16.818,72,103,57,65,53
2025-04-11 10:14:16.819,72,103,57,65,53
2025-04-11 10:14:16.827,76,106,56,64,53
2025-04-11 10:14:16.835,74,104,55,62,54
2025-04-11 10:14:16.847,74,107,56,63,52
2025-04-11 10:14:16.855,78,105,58,63,52
2025-04-11 10:14:16.871,77,102,59,63,52
2025-04-11 10:14:16.875,74,106,54,63,55
2025-04-11 10:14:16.886,74,103,59,63,51
2025-04-11 10:14:16.895,76,108,57,66,54
2025-04-11 10:14:16.907,77,104,57,67,53
2025-04-11 10:14:16.918,72,103,56,67,55
2025-04-11 10:14:16.933,78,106,58,67,53
2025-04-11 10:14:16.938,77,106,59,65,57
2025-04-11 10:14:16.946,76,104,58,63,54
2025-04-11 10:14:16.959,75,105,61,67,54
2025-04-11 10:14:16.966,80,106,59,67,54
2025-04-11 10:14:16.979,74,106,61,64,54
2025-04-11 10:14:16.997,76,102,60,67,53
2025-04-11 10:14:16.999,74,107,58,63,55
2025-04-11 10:14:17.007,75,104,63,64,53
2025-04-11 10:14:17.019,75,110,61,63,52
2025-04-11 10:14:17.027,75,107,58,65,49
2025-04-11 10:14:17.039,75,103,60,64,54
2025-04-11 10:14:17.059,74,105,59,67,52
2025-04-11 10:14:17.061,74,104,60,66,53
2025-04-11 10:14:17.067,78,107,58,63,56
2025-04-11 10:14:17.078,80,107,60,64,53
2025-04-11 10:14:17.087,77,107,57,66,53
2025-04-11 10:14:17.098,78,106,55,65,57
2025-04-11 10:14:17.106,74,106,59,64,53
2025-04-11 10:14:17.122,78,106,56,63,53
2025-04-11 10:14:17.127,76,104,61,66,57
2025-04-11 10:14:17.139,75,104,59,68,56
2025-04-11 10:14:17.146,73,107,60,69,55
2025-04-11 10:14:17.159,80,106,62,64,51
2025-04-11 10:14:17.167,78,108,55,69,50
2025-04-11 10:14:17.185,78,108,62,63,52
2025-04-11 10:14:17.186,78,107,58,68,52
2025-04-11 10:14:17.199,80,108,61,68,53
2025-04-11 10:14:17.206,74,108,57,65,54
2025-04-11 10:14:17.219,79,107,59,67,54
2025-04-11 10:14:17.226,79,106,60,66,58
2025-04-11 10:14:17.248,76,106,60,64,56
2025-04-11 10:14:17.250,79,105,60,63,53
2025-04-11 10:14:17.258,79,105,61,70,54
2025-04-11 10:14:17.271,75,110,61,68,53
2025-04-11 10:14:17.278,77,108,61,68,55
2025-04-11 10:14:17.291,77,113,64,68,58
2025-04-11 10:14:17.311,81,106,60,64,53
2025-04-11 10:14:17.312,79,107,57,66,53
2025-04-11 10:14:17.318,77,108,61,66,53
2025-04-11 10:14:17.330,77,106,59,67,57
2025-04-11 10:14:17.339,80,107,56,66,56
2025-04-11 10:14:17.350,77,111,63,71,52
2025-04-11 10:14:17.358,74,109,61,68,55
2025-04-11 10:14:17.374,75,109,58,67,58
2025-04-11 10:14:17.378,80,107,56,66,54
2025-04-11 10:14:17.391,78,111,56,66,56
2025-04-11 10:14:17.398,77,106,56,63,57
2025-04-11 10:14:17.410,78,111,58,68,53
2025-04-11 10:14:17.417,81,105,63,68,59
2025-04-11 10:14:17.436,80,110,61,67,55
2025-04-11 10:14:17.438,73,107,61,61,55
2025-04-11 10:14:17.451,77,105,62,65,55
2025-04-11 10:14:17.458,77,110,58,67,55
2025-04-11 10:14:17.470,74,108,63,67,53
2025-04-11 10:14:17.478,79,109,61,63,53
2025-04-11 10:14:17.500,79,106,57,68,54
2025-04-11 10:14:17.502,78,109,61,67,52
2025-04-11 10:14:17.511,78,106,62,67,51
2025-04-11 10:14:17.518,81,110,60,67,55
2025-04-11 10:14:17.530,77,109,57,67,54
2025-04-11 10:14:17.538,77,107,61,67,56
2025-04-11 10:14:17.563,78,110,62,67,55
2025-04-11 10:14:17.564,76,110,57,68,55
2025-04-11 10:14:17.571,78,110,63,65,48
2025-04-11 10:14:17.583,79,108,58,69,56
2025-04-11 10:14:17.591,78,111,61,68,56
2025-04-11 10:14:17.603,78,107,60,63,59
2025-04-11 10:14:17.610,79,111,57,68,53
2025-04-11 10:14:17.626,79,115,61,72,49
2025-04-11 10:14:17.630,80,108,59,69,58
2025-04-11 10:14:17.642,79,106,63,72,52
2025-04-11 10:14:17.650,82,109,59,65,55
2025-04-11 10:14:17.662,78,109,62,63,57
2025-04-11 10:14:17.670,79,107,61,69,57
2025-04-11 10:14:17.690,80,108,60,70,55
2025-04-11 10:14:17.691,75,110,62,64,56
2025-04-11 10:14:17.702,77,107,62,65,54
2025-04-11 10:14:17.710,81,106,60,71,58
2025-04-11 10:14:17.722,80,106,62,65,53
2025-04-11 10:14:17.731,82,107,62,69,52
2025-04-11 10:14:17.753,79,107,58,71,56
2025-04-11 10:14:17.754,80,110,60,67,55
2025-04-11 10:14:17.761,78,109,58,65,54
2025-04-11 10:14:17.770,77,110,60,66,55
2025-04-11 10:14:17.782,79,111,59,69,54
2025-04-11 10:14:17.790,76,106,61,68,54
2025-04-11 10:14:17.801,80,108,62,67,58
2025-04-11 10:14:17.817,82,108,59,69,58
2025-04-11 10:14:17.822,79,106,57,64,57
2025-04-11 10:14:17.826,79,106,57,64,57
2025-04-11 10:14:17.830,82,107,56,65,57
2025-04-11 10:14:17.843,79,105,63,70,56
2025-04-11 10:14:17.851,79,108,60,69,55
2025-04-11 10:14:17.862,80,109,62,67,58
2025-04-11 10:14:17.884,83,108,62,67,55
2025-04-11 10:14:17.886,77,108,60,67,59
2025-04-11 10:14:17.894,80,109,60,69,53
2025-04-11 10:14:17.903,77,109,60,68,58
2025-04-11 10:14:17.915,77,107,64,69,54
2025-04-11 10:14:17.923,81,110,57,66,56
2025-04-11 10:14:17.953,77,104,60,70,54
2025-04-11 10:14:17.955,82,107,63,68,58
2025-04-11 10:14:17.957,81,109,62,65,57
2025-04-11 10:14:17.962,79,107,61,69,56
2025-04-11 10:14:17.975,81,110,61,61,52
2025-04-11 10:14:17.982,81,109,63,65,55
2025-04-11 10:14:17.994,80,113,60,65,52
2025-04-11 10:14:18.002,80,108,62,65,52
2025-04-11 10:14:18.021,80,106,63,68,60
2025-04-11 10:14:18.022,81,108,61,69,55
2025-04-11 10:14:18.034,77,108,63,67,57
2025-04-11 10:14:18.041,76,108,63,69,50
2025-04-11 10:14:18.054,81,106,64,67,53
2025-04-11 10:14:18.061,78,107,58,69,53
2025-04-11 10:14:18.084,81,106,59,63,55
2025-04-11 10:14:18.085,79,111,64,69,55
2025-04-11 10:14:18.093,78,108,57,69,55
2025-04-11 10:14:18.102,80,109,57,71,54
2025-04-11 10:14:18.114,81,107,63,67,55
2025-04-11 10:14:18.122,80,110,60,66,57
2025-04-11 10:14:18.149,81,109,65,64,54
2025-04-11 10:14:18.151,79,103,61,70,56
2025-04-11 10:14:18.153,81,112,60,75,55
2025-04-11 10:14:18.162,83,105,61,68,54
2025-04-11 10:14:18.173,82,106,62,69,56
2025-04-11 10:14:18.182,84,103,59,72,54
2025-04-11 10:14:18.194,80,112,60,70,60
2025-04-11 10:14:18.213,80,110,59,68,59
2025-04-11 10:14:18.214,78,110,62,70,57
2025-04-11 10:14:18.225,78,111,58,64,55
2025-04-11 10:14:18.233,81,107,62,65,54
2025-04-11 10:14:18.245,85,114,62,67,56
2025-04-11 10:14:18.254,77,108,55,67,55
2025-04-11 10:14:18.276,78,109,59,66,54
2025-04-11 10:14:18.277,78,104,62,68,55
2025-04-11 10:14:18.286,79,108,57,69,55
2025-04-11 10:14:18.293,83,104,60,64,53
2025-04-11 10:14:18.306,82,114,61,70,54
2025-04-11 10:14:18.314,77,108,65,69,52
2025-04-11 10:14:18.325,82,109,63,65,56
2025-04-11 10:14:18.342,79,107,59,66,56
2025-04-11 10:14:18.346,81,109,61,69,57
2025-04-11 10:14:18.353,80,113,61,66,55
2025-04-11 10:14:18.366,81,106,64,71,54
2025-04-11 10:14:18.374,84,108,58,69,56
2025-04-11 10:14:18.386,80,104,64,69,56
2025-04-11 10:14:18.406,79,106,60,70,56
2025-04-11 10:14:18.407,81,105,65,71,55
2025-04-11 10:14:18.414,77,103,59,65,54
2025-04-11 10:14:18.425,82,104,60,69,52
2025-04-11 10:14:18.433,79,102,58,68,55
2025-04-11 10:14:18.446,76,102,59,71,58
2025-04-11 10:14:18.453,80,105,62,67,56
2025-04-11 10:14:18.469,79,103,62,68,56
2025-04-11 10:14:18.473,83,105,60,68,59
2025-04-11 10:14:18.485,80,106,56,66,57
2025-04-11 10:14:18.494,78,102,60,68,56
2025-04-11 10:14:18.505,80,104,59,68,57
2025-04-11 10:14:18.514,78,101,59,67,56
2025-04-11 10:14:18.532,81,106,62,66,56
2025-04-11 10:14:18.534,79,107,58,69,56
2025-04-11 10:14:18.546,82,105,55,71,54
2025-04-11 10:14:18.557,77,102,59,70,54
2025-04-11 10:14:18.565,80,104,60,67,55
2025-04-11 10:14:18.578,82,103,59,63,55
2025-04-11 10:14:18.596,80,106,56,70,57
2025-04-11 10:14:18.598,79,107,60,66,56
2025-04-11 10:14:18.605,80,104,59,66,57
2025-04-11 10:14:18.618,82,111,60,65,52
2025-04-11 10:14:18.626,74,108,63,67,52
2025-04-11 10:14:18.637,82,103,59,67,55
2025-04-11 10:14:18.645,78,105,61,65,54
2025-04-11 10:14:18.661,75,107,64,68,56
2025-04-11 10:14:18.665,80,106,61,71,55
2025-04-11 10:14:18.677,80,103,63,65,54
2025-04-11 10:14:18.686,76,106,60,65,53
2025-04-11 10:14:18.697,79,107,58,69,57
2025-04-11 10:14:18.704,80,106,58,65,58
2025-04-11 10:14:18.723,82,104,61,64,56
2025-04-11 10:14:18.725,77,107,60,66,58
2025-04-11 10:14:18.737,78,105,62,63,55
2025-04-11 10:14:18.745,79,106,61,67,53
2025-04-11 10:14:18.757,77,107,61,69,56
2025-04-11 10:14:18.765,82,111,59,69,59
2025-04-11 10:14:18.788,81,109,62,67,56
2025-04-11 10:14:18.789,77,107,61,67,56
2025-04-11 10:14:18.797,81,109,58,67,51
2025-04-11 10:14:18.805,81,107,60,64,55
2025-04-11 10:14:18.818,80,109,62,64,56
2025-04-11 10:14:18.828,79,106,61,67,58
2025-04-11 10:14:18.829,79,106,61,67,58
2025-04-11 10:14:18.837,81,108,57,68,55
2025-04-11 10:14:18.852,79,109,59,64,55
2025-04-11 10:14:18.858,80,109,60,71,57
2025-04-11 10:14:18.865,82,112,60,70,57
2025-04-11 10:14:18.877,83,107,60,69,59
2025-04-11 10:14:18.890,82,109,60,65,56
2025-04-11 10:14:18.897,79,108,57,70,56
2025-04-11 10:14:18.915,81,106,57,70,56
2025-04-11 10:14:18.917,78,106,62,65,51
2025-04-11 10:14:18.929,83,109,61,71,54
2025-04-11 10:14:18.936,80,106,62,65,50
2025-04-11 10:14:18.949,79,106,57,68,56
2025-04-11 10:14:18.957,82,104,58,65,57
2025-04-11 10:14:18.979,80,106,60,66,58
2025-04-11 10:14:18.980,79,110,58,66,56
2025-04-11 10:14:18.989,82,106,63,66,56
2025-04-11 10:14:18.997,79,110,59,66,57
2025-04-11 10:14:19.009,82,109,55,68,56
2025-04-11 10:14:19.017,79,110,57,67,56
2025-04-11 10:14:19.041,82,106,60,67,55
2025-04-11 10:14:19.042,77,106,63,66,56
2025-04-11 10:14:19.048,80,106,58,65,54
2025-04-11 10:14:19.056,82,110,58,69,57
2025-04-11 10:14:19.069,84,108,59,67,57
2025-04-11 10:14:19.076,81,110,61,67,52
2025-04-11 10:14:19.089,83,107,57,71,56
2025-04-11 10:14:19.106,79,107,59,66,58
2025-04-11 10:14:19.109,81,109,61,67,54
2025-04-11 10:14:19.116,79,108,57,67,55
2025-04-11 10:14:19.128,84,108,55,68,56
2025-04-11 10:14:19.137,84,110,61,68,51
2025-04-11 10:14:19.149,81,111,58,68,57
2025-04-11 10:14:19.171,80,112,64,67,55
2025-04-11 10:14:19.173,81,110,61,66,57
2025-04-11 10:14:19.181,84,108,63,64,57
2025-04-11 10:14:19.188,80,109,61,70,55
2025-04-11 10:14:19.200,84,110,55,66,59
2025-04-11 10:14:19.210,85,108,61,65,53
2025-04-11 10:14:19.221,78,111,61,71,57
2025-04-11 10:14:19.239,79,111,61,67,55
2025-04-11 10:14:19.241,86,112,57,73,58
2025-04-11 10:14:19.248,87,113,63,67,58
2025-04-11 10:14:19.261,88,111,58,70,56
2025-04-11 10:14:19.269,86,112,63,70,56
2025-04-11 10:14:19.281,84,116,61,69,58
2025-04-11 10:14:19.306,84,116,60,66,54
2025-04-11 10:14:19.307,83,113,60,72,58
2025-04-11 10:14:19.309,83,112,63,68,54
2025-04-11 10:14:19.321,79,117,62,69,57
2025-04-11 10:14:19.328,84,115,61,68,56
2025-04-11 10:14:19.340,86,111,61,70,55
2025-04-11 10:14:19.349,81,113,62,70,56
2025-04-11 10:14:19.370,86,112,56,73,58
2025-04-11 10:14:19.371,89,114,62,70,60
2025-04-11 10:14:19.381,82,115,60,66,58
2025-04-11 10:14:19.389,84,117,58,66,57
2025-04-11 10:14:19.401,85,115,61,69,54
2025-04-11 10:14:19.409,84,118,62,68,58
2025-04-11 10:14:19.433,86,112,62,70,59
2025-04-11 10:14:19.434,81,114,62,72,60
2025-04-11 10:14:19.440,83,114,63,62,55
2025-04-11 10:14:19.449,87,111,61,67,58
2025-04-11 10:14:19.460,80,116,63,70,57
2025-04-11 10:14:19.468,81,114,62,64,62
2025-04-11 10:14:19.481,87,114,59,69,59
2025-04-11 10:14:19.498,84,117,59,68,54
2025-04-11 10:14:19.500,85,118,62,68,58
2025-04-11 10:14:19.509,88,118,65,70,54
2025-04-11 10:14:19.520,87,116,65,72,55
2025-04-11 10:14:19.532,87,120,63,69,58
2025-04-11 10:14:19.540,84,116,62,67,61
2025-04-11 10:14:19.561,84,116,62,69,64
2025-04-11 10:14:19.562,83,115,65,68,58
2025-04-11 10:14:19.573,83,119,62,70,58
2025-04-11 10:14:19.581,87,121,61,71,55
2025-04-11 10:14:19.592,86,113,60,73,57
2025-04-11 10:14:19.601,87,118,62,71,57
2025-04-11 10:14:19.624,88,115,57,69,59
2025-04-11 10:14:19.625,92,116,62,69,55
2025-04-11 10:14:19.632,89,116,62,69,64
2025-04-11 10:14:19.641,90,121,60,74,60
2025-04-11 10:14:19.653,87,120,61,72,59
2025-04-11 10:14:19.661,91,114,64,71,60
2025-04-11 10:14:19.672,90,120,65,73,59
2025-04-11 10:14:19.687,88,119,61,72,58
2025-04-11 10:14:19.693,91,123,60,70,59
2025-04-11 10:14:19.701,91,120,60,71,62
2025-04-11 10:14:19.713,91,120,66,68,60
2025-04-11 10:14:19.720,89,115,64,71,59
2025-04-11 10:14:19.733,87,122,60,73,59
2025-04-11 10:14:19.750,89,117,62,69,61
2025-04-11 10:14:19.752,92,117,61,68,56
2025-04-11 10:14:19.761,91,122,63,66,62
2025-04-11 10:14:19.772,90,123,59,73,56
2025-04-11 10:14:19.780,88,121,62,69,59
2025-04-11 10:14:19.792,89,124,67,71,59
2025-04-11 10:14:19.813,91,123,60,69,56
2025-04-11 10:14:19.815,92,124,63,74,63
2025-04-11 10:14:19.820,90,123,66,69,56
2025-04-11 10:14:19.832,95,123,64,74,59
2025-04-11 10:14:19.836,95,123,64,74,59
2025-04-11 10:14:19.839,92,122,64,77,59
2025-04-11 10:14:19.853,91,124,63,69,61
2025-04-11 10:14:19.859,98,124,62,75,59
2025-04-11 10:14:19.877,91,124,57,74,63
2025-04-11 10:14:19.885,95,124,63,73,58
2025-04-11 10:14:19.892,95,124,63,74,58
2025-04-11 10:14:19.904,94,127,61,72,60
2025-04-11 10:14:19.912,93,124,66,74,61
2025-04-11 10:14:19.924,90,125,65,70,61
2025-04-11 10:14:19.941,94,128,64,72,61
2025-04-11 10:14:19.944,99,127,61,72,58
2025-04-11 10:14:19.952,95,124,62,75,59
2025-04-11 10:14:19.964,97,121,67,73,60
2025-04-11 10:14:19.973,96,126,62,73,66
2025-04-11 10:14:19.984,89,126,62,78,65
2025-04-11 10:14:20.005,97,124,62,73,61
2025-04-11 10:14:20.006,97,124,61,72,65
2025-04-11 10:14:20.013,95,133,65,73,60
2025-04-11 10:14:20.024,92,125,63,76,61
2025-04-11 10:14:20.033,95,128,64,74,60
2025-04-11 10:14:20.044,94,131,65,72,63
2025-04-11 10:14:20.053,100,126,62,74,60
2025-04-11 10:14:20.067,94,127,67,73,64
2025-04-11 10:14:20.073,93,128,65,77,61
2025-04-11 10:14:20.084,98,125,63,75,63
2025-04-11 10:14:20.093,94,129,65,74,61
2025-04-11 10:14:20.104,97,131,62,78,59
2025-04-11 10:14:20.112,99,127,61,75,61
2025-04-11 10:14:20.131,93,129,67,74,58
2025-04-11 10:14:20.132,96,130,62,73,60
2025-04-11 10:14:20.145,98,131,63,73,61
2025-04-11 10:14:20.151,94,130,65,77,60
2025-04-11 10:14:20.165,97,130,63,72,62
2025-04-11 10:14:20.172,96,130,65,74,63
2025-04-11 10:14:20.195,96,128,61,77,64
2025-04-11 10:14:20.196,96,131,63,75,65
2025-04-11 10:14:20.204,96,133,67,75,59
2025-04-11 10:14:20.216,95,132,63,73,59
2025-04-11 10:14:20.224,96,128,67,76,61
2025-04-11 10:14:20.236,97,127,64,75,60
2025-04-11 10:14:20.258,97,133,63,74,61
2025-04-11 10:14:20.260,102,128,63,76,59
2025-04-11 10:14:20.263,100,133,66,77,61
2025-04-11 10:14:20.276,103,136,64,80,61
2025-04-11 10:14:20.284,98,133,64,73,64
2025-04-11 10:14:20.296,98,133,64,77,62
2025-04-11 10:14:20.304,98,138,69,77,63
2025-04-11 10:14:20.322,102,134,65,77,63
2025-04-11 10:14:20.324,101,135,63,77,65
2025-04-11 10:14:20.336,101,134,66,78,64
2025-04-11 10:14:20.344,102,135,67,73,62
2025-04-11 10:14:20.355,99,135,63,77,66
2025-04-11 10:14:20.363,102,133,64,81,65
2025-04-11 10:14:20.386,101,141,66,79,61
2025-04-11 10:14:20.388,101,138,63,74,66
2025-04-11 10:14:20.396,99,139,64,80,65
2025-04-11 10:14:20.403,101,136,68,78,67
2025-04-11 10:14:20.416,102,139,65,78,62
2025-04-11 10:14:20.423,103,138,65,77,66
2025-04-11 10:14:20.451,101,136,64,79,63
2025-04-11 10:14:20.452,100,138,66,74,63
2025-04-11 10:14:20.456,102,140,68,77,63
2025-04-11 10:14:20.467,98,135,68,79,61
2025-04-11 10:14:20.476,100,140,66,76,68
2025-04-11 10:14:20.488,100,138,66,74,59
2025-04-11 10:14:20.496,103,137,68,78,65
2025-04-11 10:14:20.515,98,140,65,75,61
2025-04-11 10:14:20.516,99,142,66,80,65
2025-04-11 10:14:20.529,98,137,68,79,61
2025-04-11 10:14:20.535,105,142,66,76,65
2025-04-11 10:14:20.548,101,138,68,75,61
2025-04-11 10:14:20.556,104,142,64,77,66
2025-04-11 10:14:20.578,104,138,64,81,59
2025-04-11 10:14:20.580,103,137,63,76,62
2025-04-11 10:14:20.587,101,137,67,74,64
2025-04-11 10:14:20.595,100,137,67,77,63
2025-04-11 10:14:20.608,103,141,62,81,65
2025-04-11 10:14:20.615,100,140,65,76,63
2025-04-11 10:14:20.644,103,143,61,78,66
2025-04-11 10:14:20.645,101,139,65,77,63
2025-04-11 10:14:20.646,101,139,65,77,63
2025-04-11 10:14:20.647,103,141,67,77,67
2025-04-11 10:14:20.656,101,137,63,79,63
2025-04-11 10:14:20.668,102,139,68,79,65
2025-04-11 10:14:20.675,101,140,68,78,64
2025-04-11 10:14:20.688,100,138,64,74,67
2025-04-11 10:14:20.708,103,138,67,75,64
2025-04-11 10:14:20.709,103,140,69,82,64
2025-04-11 10:14:20.719,102,139,67,76,67
2025-04-11 10:14:20.727,101,142,66,73,64
2025-04-11 10:14:20.740,102,139,66,79,67
2025-04-11 10:14:20.747,102,138,65,78,62
2025-04-11 10:14:20.771,98,138,65,76,64
2025-04-11 10:14:20.773,101,138,67,73,60
2025-04-11 10:14:20.780,104,140,63,74,65
2025-04-11 10:14:20.788,99,139,65,76,68
2025-04-11 10:14:20.800,101,141,65,78,65
2025-04-11 10:14:20.807,101,138,69,77,60
2025-04-11 10:14:20.820,102,144,68,79,62
2025-04-11 10:14:20.834,101,139,65,79,67
2025-04-11 10:14:20.839,100,141,63,76,67
2025-04-11 10:14:20.848,104,140,65,76,68
2025-04-11 10:14:20.860,105,141,66,79,64
2025-04-11 10:14:20.867,103,144,68,78,64
2025-04-11 10:14:20.880,105,144,64,78,65
2025-04-11 10:14:20.896,99,145,69,77,66
2025-04-11 10:14:20.899,102,147,64,75,62
2025-04-11 10:14:20.908,103,140,66,78,67
2025-04-11 10:14:20.920,107,143,63,79,63
2025-04-11 10:14:20.928,100,143,64,79,63
2025-04-11 10:14:20.939,101,141,61,73,64
2025-04-11 10:14:20.960,101,139,66,80,64
2025-04-11 10:14:20.962,97,143,67,74,63
2025-04-11 10:14:20.971,107,141,61,75,63
2025-04-11 10:14:20.979,104,144,67,75,67
2025-04-11 10:14:20.991,106,141,66,77,63
2025-04-11 10:14:20.999,101,142,65,79,67
2025-04-11 10:14:21.024,101,141,64,79,67
2025-04-11 10:14:21.025,102,145,66,79,64
2025-04-11 10:14:21.031,101,140,65,81,62
2025-04-11 10:14:21.039,103,143,62,81,65
2025-04-11 10:14:21.052,103,147,66,80,65
2025-04-11 10:14:21.059,100,141,71,75,66
2025-04-11 10:14:21.072,103,142,63,80,68
2025-04-11 10:14:21.088,102,146,67,80,65
2025-04-11 10:14:21.091,103,141,70,78,62
2025-04-11 10:14:21.100,105,146,65,84,63
2025-04-11 10:14:21.111,103,147,65,76,64
2025-04-11 10:14:21.119,105,144,61,78,64
2025-04-11 10:14:21.131,104,149,68,79,68
2025-04-11 10:14:21.152,103,144,66,79,66
2025-04-11 10:14:21.153,107,147,66,79,66
2025-04-11 10:14:21.159,103,144,65,78,66
2025-04-11 10:14:21.171,102,148,66,77,63
2025-04-11 10:14:21.183,105,148,64,77,68
2025-04-11 10:14:21.191,102,146,64,77,64
2025-04-11 10:14:21.216,103,146,64,76,69
2025-04-11 10:14:21.217,103,141,67,77,65
2025-04-11 10:14:21.224,107,147,64,77,63
2025-04-11 10:14:21.232,104,142,68,78,66
2025-04-11 10:14:21.244,103,147,69,79,66
2025-04-11 10:14:21.251,100,143,63,80,70
2025-04-11 10:14:21.263,99,142,69,77,62
2025-04-11 10:14:21.279,100,148,67,72,66
2025-04-11 10:14:21.284,103,146,69,78,67
2025-04-11 10:14:21.291,105,146,67,79,64
2025-04-11 10:14:21.303,104,149,67,76,63
2025-04-11 10:14:21.312,101,146,63,78,65
2025-04-11 10:14:21.323,109,147,68,80,67
2025-04-11 10:14:21.344,104,145,67,76,62
2025-04-11 10:14:21.345,100,142,65,78,63
2025-04-11 10:14:21.352,105,149,68,77,63
2025-04-11 10:14:21.363,102,147,66,77,63
2025-04-11 10:14:21.372,103,147,64,76,63
2025-04-11 10:14:21.383,105,144,68,79,63
2025-04-11 10:14:21.391,101,145,63,77,65
2025-04-11 10:14:21.411,104,143,68,79,67
2025-04-11 10:14:21.412,105,144,66,78,61
2025-04-11 10:14:21.424,100,142,68,78,66
2025-04-11 10:14:21.435,105,145,63,80,67
2025-04-11 10:14:21.443,104,144,64,81,61
2025-04-11 10:14:21.447,104,144,64,81,61
2025-04-11 10:14:21.455,107,140,66,79,66
2025-04-11 10:14:21.477,100,140,67,78,63
2025-04-11 10:14:21.479,102,142,67,78,60
2025-04-11 10:14:21.483,105,140,66,77,67
2025-04-11 10:14:21.495,102,143,64,80,66
2025-04-11 10:14:21.503,101,144,64,77,66
2025-04-11 10:14:21.514,101,138,67,75,67
2025-04-11 10:14:21.523,104,140,61,74,61
2025-04-11 10:14:21.544,102,145,62,78,66
2025-04-11 10:14:21.546,102,143,67,77,63
2025-04-11 10:14:21.555,101,143,67,78,64
2025-04-11 10:14:21.563,100,142,66,78,61
2025-04-11 10:14:21.575,101,144,63,75,66
2025-04-11 10:14:21.584,103,140,62,78,64
2025-04-11 10:14:21.611,103,139,66,74,63
2025-04-11 10:14:21.612,100,140,67,79,64
2025-04-11 10:14:21.616,102,136,67,82,62
2025-04-11 10:14:21.623,95,143,69,76,66
2025-04-11 10:14:21.636,99,140,69,79,64
2025-04-11 10:14:21.647,98,144,65,75,62
2025-04-11 10:14:21.655,99,137,65,74,63
2025-04-11 10:14:21.678,102,140,68,81,62
2025-04-11 10:14:21.679,100,141,67,73,65
2025-04-11 10:14:21.687,98,139,65,76,60
2025-04-11 10:14:21.695,97,140,66,76,62
2025-04-11 10:14:21.707,101,138,64,76,62
2025-04-11 10:14:21.715,99,140,64,79,58
2025-04-11 10:14:21.744,99,138,65,71,65
2025-04-11 10:14:21.746,98,139,66,76,63
2025-04-11 10:14:21.747,97,143,65,76,60
2025-04-11 10:14:21.755,99,141,61,75,63
2025-04-11 10:14:21.767,98,140,64,72,57
2025-04-11 10:14:21.774,97,141,65,74,66
2025-04-11 10:14:21.787,97,140,64,70,62
2025-04-11 10:14:21.810,94,142,64,75,61
2025-04-11 10:14:21.811,94,140,62,79,62
2025-04-11 10:14:21.815,100,143,67,75,62
2025-04-11 10:14:21.827,97,140,64,74,62
2025-04-11 10:14:21.836,99,145,65,76,62
2025-04-11 10:14:21.848,95,146,62,75,59
2025-04-11 10:14:21.855,96,145,66,73,62
2025-04-11 10:14:21.878,102,148,64,74,60
2025-04-11 10:14:21.880,101,152,63,78,62
2025-04-11 10:14:21.888,99,151,64,75,60
2025-04-11 10:14:21.895,106,156,62,77,67
2025-04-11 10:14:21.907,105,156,64,83,64
2025-04-11 10:14:21.915,108,156,60,78,66
2025-04-11 10:14:21.926,109,158,67,77,66
2025-04-11 10:14:21.947,109,161,68,79,64
2025-04-11 10:14:21.948,108,166,66,82,64
2025-04-11 10:14:21.959,111,166,69,74,65
2025-04-11 10:14:21.967,109,170,70,84,66
2025-04-11 10:14:21.978,114,170,70,82,71
2025-04-11 10:14:21.986,117,173,68,82,69
2025-04-11 10:14:22.012,118,175,69,81,70
2025-04-11 10:14:22.013,125,178,71,85,71
2025-04-11 10:14:22.019,126,184,71,89,76
2025-04-11 10:14:22.026,123,185,73,94,75
2025-04-11 10:14:22.039,132,192,72,88,69
2025-04-11 10:14:22.047,136,193,74,94,74
2025-04-11 10:14:22.058,135,201,79,92,81
2025-04-11 10:14:22.079,138,204,77,95,79
2025-04-11 10:14:22.081,143,207,80,97,77
2025-04-11 10:14:22.087,144,209,77,103,83
2025-04-11 10:14:22.099,148,214,75,102,88
2025-04-11 10:14:22.107,150,212,77,105,85
2025-04-11 10:14:22.119,152,219,83,108,84
2025-04-11 10:14:22.127,155,224,80,111,89
2025-04-11 10:14:22.146,163,225,83,107,88
2025-04-11 10:14:22.148,159,230,82,112,89
2025-04-11 10:14:22.159,162,233,83,113,88
2025-04-11 10:14:22.166,164,240,83,112,92
2025-04-11 10:14:22.178,167,237,82,114,95
2025-04-11 10:14:22.187,167,236,86,118,93
2025-04-11 10:14:22.210,169,238,88,116,91
2025-04-11 10:14:22.211,170,241,83,117,93
2025-04-11 10:14:22.219,168,243,90,121,98
2025-04-11 10:14:22.230,173,244,87,118,100
2025-04-11 10:14:22.238,166,244,86,120,99
2025-04-11 10:14:22.251,170,246,88,119,96
2025-04-11 10:14:22.258,168,246,85,117,91
2025-04-11 10:14:22.275,166,242,80,114,94
2025-04-11 10:14:22.279,161,235,80,116,93
2025-04-11 10:14:22.291,156,234,78,115,93
2025-04-11 10:14:22.298,154,236,83,111,90
2025-04-11 10:14:22.310,146,227,79,107,88
2025-04-11 10:14:22.319,142,225,76,104,83
2025-04-11 10:14:22.339,141,222,75,102,79
2025-04-11 10:14:22.340,129,212,73,94,80
2025-04-11 10:14:22.350,126,204,72,96,75
2025-04-11 10:14:22.358,119,198,69,88,73
2025-04-11 10:14:22.371,113,195,70,86,70
2025-04-11 10:14:22.378,102,182,64,81,71
2025-04-11 10:14:22.403,97,179,66,78,66
2025-04-11 10:14:22.404,92,169,62,70,59
2025-04-11 10:14:22.410,85,163,62,69,60
2025-04-11 10:14:22.419,80,157,60,72,55
2025-04-11 10:14:22.430,79,141,60,69,59
2025-04-11 10:14:22.438,72,142,60,67,53
2025-04-11 10:14:22.449,73,130,56,60,49
2025-04-11 10:14:22.468,73,130,56,60,49
2025-04-11 10:14:22.469,62,120,56,61,52
2025-04-11 10:14:22.470,61,113,55,56,49
2025-04-11 10:14:22.478,62,113,57,61,48
2025-04-11 10:14:22.491,61,110,54,60,50
2025-04-11 10:14:22.499,57,106,55,61,43
2025-04-11 10:14:22.510,61,104,51,59,46
2025-04-11 10:14:22.531,60,97,52,57,49
2025-04-11 10:14:22.532,58,94,54,56,47
2025-04-11 10:14:22.538,56,91,55,55,48
2025-04-11 10:14:22.550,56,95,51,54,47
2025-04-11 10:14:22.562,59,91,52,54,47
2025-04-11 10:14:22.570,58,86,50,54,48
2025-04-11 10:14:22.593,56,87,52,54,45
2025-04-11 10:14:22.595,55,85,51,55,46
2025-04-11 10:14:22.603,54,86,50,54,46
2025-04-11 10:14:22.610,54,84,53,53,43
2025-04-11 10:14:22.622,55,81,50,54,47
2025-04-11 10:14:22.631,54,83,51,53,42
2025-04-11 10:14:22.642,56,83,50,50,44
2025-04-11 10:14:22.657,55,80,50,59,44
2025-04-11 10:14:22.663,58,82,53,59,46
2025-04-11 10:14:22.670,51,79,50,55,43
2025-04-11 10:14:22.682,56,82,51,57,46
2025-04-11 10:14:22.690,55,78,52,53,43
2025-04-11 10:14:22.702,53,83,48,49,47
2025-04-11 10:14:22.721,53,82,56,53,43
2025-04-11 10:14:22.722,56,74,53,56,43
2025-04-11 10:14:22.730,55,79,50,53,43
2025-04-11 10:14:22.742,56,80,47,52,45
2025-04-11 10:14:22.749,55,76,52,50,42
2025-04-11 10:14:22.762,50,77,50,57,45
2025-04-11 10:14:22.769,54,84,51,50,47
2025-04-11 10:14:22.784,52,77,55,56,45
2025-04-11 10:14:22.790,54,78,53,55,44
2025-04-11 10:14:22.802,55,77,48,51,43
2025-04-11 10:14:22.814,52,78,52,55,48
2025-04-11 10:14:22.822,56,81,53,54,46
2025-04-11 10:14:22.848,58,79,52,57,44
2025-04-11 10:14:22.849,56,72,56,57,51
2025-04-11 10:14:22.854,56,76,46,52,45
2025-04-11 10:14:22.862,59,82,51,51,44
2025-04-11 10:14:22.874,56,76,52,55,39
2025-04-11 10:14:22.882,55,75,54,53,46
2025-04-11 10:14:22.893,56,75,48,57,45
2025-04-11 10:14:22.912,59,75,54,58,44
2025-04-11 10:14:22.914,57,75,51,57,45
2025-04-11 10:14:22.921,54,75,53,56,42
2025-04-11 10:14:22.934,55,75,48,51,44
2025-04-11 10:14:22.942,54,72,54,53,47
2025-04-11 10:14:22.954,53,75,49,54,42
2025-04-11 10:14:22.976,56,76,52,52,45
2025-04-11 10:14:22.977,54,74,49,55,41
2025-04-11 10:14:22.982,52,77,53,53,45
2025-04-11 10:14:22.994,54,78,52,52,47
2025-04-11 10:14:23.002,56,77,52,52,46
2025-04-11 10:14:23.014,59,80,51,53,42
2025-04-11 10:14:23.021,57,76,53,53,46
2025-04-11 10:14:23.039,58,75,51,54,45
2025-04-11 10:14:23.042,55,79,50,56,44
2025-04-11 10:14:23.054,57,73,50,51,43
2025-04-11 10:14:23.066,54,77,54,57,45
2025-04-11 10:14:23.074,56,74,56,57,42
2025-04-11 10:14:23.085,53,77,53,52,47
2025-04-11 10:14:23.105,58,74,51,50,42
2025-04-11 10:14:23.107,57,75,51,55,43
2025-04-11 10:14:23.114,57,75,52,55,45
2025-04-11 10:14:23.125,57,77,51,53,44
2025-04-11 10:14:23.134,56,79,55,55,48
2025-04-11 10:14:23.141,56,79,55,55,48
2025-04-11 10:14:23.154,55,74,53,52,43
2025-04-11 10:14:23.170,57,75,51,54,43
2025-04-11 10:14:23.173,58,80,52,51,46
2025-04-11 10:14:23.185,55,76,54,57,47
2025-04-11 10:14:23.194,60,75,51,50,43
2025-04-11 10:14:23.206,53,75,50,55,48
2025-04-11 10:14:23.214,57,79,53,54,44
2025-04-11 10:14:23.237,58,78,53,57,45
2025-04-11 10:14:23.239,58,71,55,53,41
2025-04-11 10:14:23.246,55,73,52,57,50
2025-04-11 10:14:23.258,56,78,52,56,46
2025-04-11 10:14:23.259,56,78,52,56,46
2025-04-11 10:14:23.262,56,78,52,56,46
2025-04-11 10:14:23.266,61,78,54,52,44
2025-04-11 10:14:23.274,59,82,55,55,47
2025-04-11 10:14:23.286,54,74,54,55,48
2025-04-11 10:14:23.306,60,80,52,55,46
2025-04-11 10:14:23.307,60,78,48,56,46
2025-04-11 10:14:23.318,60,78,51,54,43
2025-04-11 10:14:23.326,58,79,54,55,47
2025-04-11 10:14:23.337,56,83,49,57,47
2025-04-11 10:14:23.345,59,81,52,56,46
2025-04-11 10:14:23.372,56,82,52,56,46
2025-04-11 10:14:23.374,55,77,52,56,46
2025-04-11 10:14:23.377,58,81,53,58,47
2025-04-11 10:14:23.385,59,81,55,53,50
2025-04-11 10:14:23.397,57,82,54,56,48
2025-04-11 10:14:23.406,54,80,52,54,50
2025-04-11 10:14:23.417,58,81,53,56,45
2025-04-11 10:14:23.437,60,77,49,57,46
2025-04-11 10:14:23.439,59,78,55,57,50
2025-04-11 10:14:23.445,55,81,52,53,44
2025-04-11 10:14:23.457,62,79,51,58,48
2025-04-11 10:14:23.466,59,76,56,61,48
2025-04-11 10:14:23.478,61,78,51,60,47
2025-04-11 10:14:23.486,58,78,50,56,46
2025-04-11 10:14:23.502,56,78,50,54,47
2025-04-11 10:14:23.505,60,80,56,59,46
2025-04-11 10:14:23.518,60,79,53,53,49
2025-04-11 10:14:23.525,58,78,55,57,46
2025-04-11 10:14:23.538,62,79,52,60,45
2025-04-11 10:14:23.550,56,75,50,53,46
2025-04-11 10:14:23.567,63,76,52,58,48
2025-04-11 10:14:23.570,63,76,52,58,48
2025-04-11 10:14:23.578,57,81,50,56,46
2025-04-11 10:14:23.589,62,77,52,58,48
2025-04-11 10:14:23.598,58,71,49,56,46
2025-04-11 10:14:23.610,57,77,51,56,45
2025-04-11 10:14:23.635,59,73,53,58,46
2025-04-11 10:14:23.637,60,75,53,54,49
2025-04-11 10:14:23.638,57,74,51,57,48
2025-04-11 10:14:23.649,55,76,47,58,50
2025-04-11 10:14:23.657,59,75,51,57,46
2025-04-11 10:14:23.670,60,72,50,57,46
2025-04-11 10:14:23.677,55,75,55,56,47
2025-04-11 10:14:23.699,60,73,54,57,50
2025-04-11 10:14:23.700,59,75,49,53,49
2025-04-11 10:14:23.710,61,73,51,54,45
2025-04-11 10:14:23.717,58,73,51,57,49
2025-04-11 10:14:23.729,56,75,52,58,48
2025-04-11 10:14:23.737,58,74,54,56,46
2025-04-11 10:14:23.762,57,73,51,53,45
2025-04-11 10:14:23.764,61,75,49,56,44
2025-04-11 10:14:23.769,61,73,50,58,43
2025-04-11 10:14:23.777,60,76,54,57,48
2025-04-11 10:14:23.790,58,78,48,58,45
2025-04-11 10:14:23.801,56,71,54,58,47
2025-04-11 10:14:23.809,60,73,55,56,48
2025-04-11 10:14:23.826,57,74,54,55,47
2025-04-11 10:14:23.830,59,73,54,57,44
2025-04-11 10:14:23.841,60,69,56,59,40
2025-04-11 10:14:23.849,61,70,54,56,48
2025-04-11 10:14:23.862,61,73,53,58,50
2025-04-11 10:14:23.863,61,73,53,58,50
2025-04-11 10:14:23.869,59,71,53,56,44
2025-04-11 10:14:23.892,63,72,54,59,49
2025-04-11 10:14:23.893,59,70,55,61,51
2025-04-11 10:14:23.902,63,73,54,61,48
2025-04-11 10:14:23.909,60,73,51,54,46
2025-04-11 10:14:23.921,59,71,55,60,46
2025-04-11 10:14:23.928,56,69,52,57,46
2025-04-11 10:14:23.955,61,70,52,56,50
2025-04-11 10:14:23.956,61,69,54,56,44
2025-04-11 10:14:23.962,60,70,56,56,47
2025-04-11 10:14:23.969,64,72,55,56,50
2025-04-11 10:14:23.981,62,71,55,54,50
2025-04-11 10:14:23.989,60,73,54,55,46
2025-04-11 10:14:24.001,61,70,54,58,43
2025-04-11 10:14:24.021,58,72,51,58,46
2025-04-11 10:14:24.023,63,70,54,58,46
2025-04-11 10:14:24.033,57,72,59,56,44
2025-04-11 10:14:24.041,60,67,50,59,42
2025-04-11 10:14:24.053,59,71,52,59,47
2025-04-11 10:14:24.062,60,71,48,55,47
2025-04-11 10:14:24.085,60,70,55,59,44
2025-04-11 10:14:24.086,60,73,57,55,48
2025-04-11 10:14:24.093,59,68,52,57,46
2025-04-11 10:14:24.100,63,73,57,60,43
2025-04-11 10:14:24.113,58,68,50,60,50
2025-04-11 10:14:24.121,63,73,54,58,46
2025-04-11 10:14:24.133,63,77,55,60,45
2025-04-11 10:14:24.149,60,71,51,55,46
2025-04-11 10:14:24.153,63,72,54,58,48
2025-04-11 10:14:24.162,61,74,51,56,49
2025-04-11 10:14:24.172,62,76,53,57,43
2025-04-11 10:14:24.181,60,75,55,57,51
2025-04-11 10:14:24.193,61,72,52,58,50
2025-04-11 10:14:24.212,63,70,56,60,47
2025-04-11 10:14:24.214,60,72,55,59,50
2025-04-11 10:14:24.221,63,76,55,58,49
2025-04-11 10:14:24.233,63,77,50,59,46
2025-04-11 10:14:24.240,63,75,50,60,50
2025-04-11 10:14:24.254,60,75,55,58,50
2025-04-11 10:14:24.275,62,73,48,59,50
2025-04-11 10:14:24.276,64,75,53,56,50
2025-04-11 10:14:24.284,57,77,53,56,42
2025-04-11 10:14:24.293,60,78,56,56,47
2025-04-11 10:14:24.305,57,74,52,56,52
2025-04-11 10:14:24.313,59,79,55,60,48
2025-04-11 10:14:24.324,59,79,53,57,48
2025-04-11 10:14:24.343,65,79,54,61,49
2025-04-11 10:14:24.345,62,76,55,58,48
2025-04-11 10:14:24.353,62,77,57,57,48
2025-04-11 10:14:24.365,63,75,53,60,47
2025-04-11 10:14:24.372,68,80,53,57,50
2025-04-11 10:14:24.385,58,79,54,59,50
2025-04-11 10:14:24.409,63,79,54,60,48
2025-04-11 10:14:24.410,59,74,55,53,48
2025-04-11 10:14:24.413,61,78,52,59,50
2025-04-11 10:14:24.425,63,79,59,60,48
2025-04-11 10:14:24.433,63,74,53,60,51
2025-04-11 10:14:24.445,64,83,52,57,47
2025-04-11 10:14:24.453,64,74,51,56,46
2025-04-11 10:14:24.472,60,79,53,58,49
2025-04-11 10:14:24.473,62,83,55,57,48
2025-04-11 10:14:24.485,56,80,54,62,51
2025-04-11 10:14:24.493,62,79,52,58,45
2025-04-11 10:14:24.505,59,76,55,59,50
2025-04-11 10:14:24.512,65,76,55,58,48
2025-04-11 10:14:24.535,60,79,51,65,54
2025-04-11 10:14:24.537,66,77,53,57,51
2025-04-11 10:14:24.545,61,79,54,57,49
2025-04-11 10:14:24.556,64,78,54,64,49
2025-04-11 10:14:24.565,63,84,56,56,49
2025-04-11 10:14:24.577,61,78,54,59,46
2025-04-11 10:14:24.598,66,78,53,58,50
2025-04-11 10:14:24.599,60,79,60,60,49
2025-04-11 10:14:24.605,64,77,52,58,49
2025-04-11 10:14:24.617,61,76,54,55,45
2025-04-11 10:14:24.625,61,79,57,57,51
2025-04-11 10:14:24.637,57,74,55,58,45
2025-04-11 10:14:24.644,60,78,54,59,47
2025-04-11 10:14:24.663,63,77,54,58,46
2025-04-11 10:14:24.669,63,76,53,61,47
2025-04-11 10:14:24.670,63,76,53,61,47
2025-04-11 10:14:24.678,61,79,53,57,46
2025-04-11 10:14:24.685,63,78,54,60,45
2025-04-11 10:14:24.697,64,75,53,58,48
2025-04-11 10:14:24.704,60,78,54,58,48
2025-04-11 10:14:24.726,62,75,55,57,49
2025-04-11 10:14:24.727,67,79,52,55,51
2025-04-11 10:14:24.736,63,76,53,56,49
2025-04-11 10:14:24.744,60,70,57,59,44
2025-04-11 10:14:24.757,61,78,54,57,49
2025-04-11 10:14:24.765,60,77,54,62,48
2025-04-11 10:14:24.790,57,79,57,61,49
2025-04-11 10:14:24.791,62,80,52,59,49
2025-04-11 10:14:24.797,61,78,52,59,46
2025-04-11 10:14:24.808,65,75,53,56,50
2025-04-11 10:14:24.816,63,76,55,60,46
2025-04-11 10:14:24.829,62,81,50,57,51
2025-04-11 10:14:24.837,60,83,54,57,44
2025-04-11 10:14:24.853,60,71,54,59,48
2025-04-11 10:14:24.857,62,75,54,62,51
2025-04-11 10:14:24.868,58,77,53,56,51
2025-04-11 10:14:24.877,62,82,57,57,44
2025-04-11 10:14:24.889,63,78,52,57,49
2025-04-11 10:14:24.897,59,76,51,57,48
2025-04-11 10:14:24.916,62,73,52,56,47
2025-04-11 10:14:24.918,62,79,52,54,48
2025-04-11 10:14:24.929,56,75,55,59,46
2025-04-11 10:14:24.937,61,77,55,61,48
2025-04-11 10:14:24.949,65,77,57,58,43
2025-04-11 10:14:24.956,61,75,54,60,46
2025-04-11 10:14:24.979,61,84,53,60,41
2025-04-11 10:14:24.981,60,76,51,55,47
2025-04-11 10:14:24.988,61,78,57,57,48
2025-04-11 10:14:24.996,62,78,55,56,45
2025-04-11 10:14:25.008,61,75,52,58,46
2025-04-11 10:14:25.021,60,76,52,55,41
2025-04-11 10:14:25.028,61,77,51,55,46
2025-04-11 10:14:25.043,60,72,56,57,47
2025-04-11 10:14:25.048,58,75,53,54,46
2025-04-11 10:14:25.060,58,69,52,55,50
2025-04-11 10:14:25.069,59,66,49,52,45
2025-04-11 10:14:25.080,57,68,51,57,48
2025-04-11 10:14:25.089,58,65,57,58,48
2025-04-11 10:14:25.109,56,67,53,54,47
2025-04-11 10:14:25.110,60,62,50,55,44
2025-04-11 10:14:25.121,54,64,55,51,42
2025-04-11 10:14:25.129,60,62,51,53,46
2025-04-11 10:14:25.140,60,62,55,55,45
2025-04-11 10:14:25.149,55,59,51,53,44
2025-04-11 10:14:25.174,55,61,53,53,45
2025-04-11 10:14:25.175,59,58,53,56,43
2025-04-11 10:14:25.181,56,58,49,56,43
2025-04-11 10:14:25.188,55,56,51,56,46
2025-04-11 10:14:25.200,57,53,49,58,44
2025-04-11 10:14:25.207,58,51,50,55,49
2025-04-11 10:14:25.221,57,53,56,60,44
2025-04-11 10:14:25.238,56,51,54,51,47
2025-04-11 10:14:25.240,56,52,50,51,42
2025-04-11 10:14:25.248,55,50,53,53,44
2025-04-11 10:14:25.260,56,51,50,53,44
2025-04-11 10:14:25.272,52,50,51,52,48
2025-04-11 10:14:25.273,52,50,51,52,48
2025-04-11 10:14:25.280,54,52,49,54,46
2025-04-11 10:14:25.301,54,55,49,58,41
2025-04-11 10:14:25.302,54,50,51,53,43
2025-04-11 10:14:25.312,53,50,51,51,46
2025-04-11 10:14:25.320,52,53,50,51,44
2025-04-11 10:14:25.331,58,52,51,57,45
2025-04-11 10:14:25.340,55,54,50,50,46
2025-04-11 10:14:25.365,52,57,48,54,44
2025-04-11 10:14:25.366,55,60,47,53,49
2025-04-11 10:14:25.372,58,63,52,53,49
2025-04-11 10:14:25.380,57,64,54,55,46
2025-04-11 10:14:25.392,57,67,52,59,48
2025-04-11 10:14:25.399,58,71,51,59,49
2025-04-11 10:14:25.412,64,78,56,55,46
2025-04-11 10:14:25.429,60,87,56,59,48
2025-04-11 10:14:25.432,60,99,51,58,49
2025-04-11 10:14:25.440,59,99,56,61,44
2025-04-11 10:14:25.452,61,107,55,60,49
2025-04-11 10:14:25.460,63,114,54,62,46
2025-04-11 10:14:25.472,60,113,54,55,48
2025-04-11 10:14:25.493,61,120,52,57,47
2025-04-11 10:14:25.494,59,119,56,59,45
2025-04-11 10:14:25.500,54,119,51,58,44
2025-04-11 10:14:25.512,58,123,53,57,44
2025-04-11 10:14:25.524,59,128,53,56,48
2025-04-11 10:14:25.532,61,136,53,59,46
2025-04-11 10:14:25.558,67,149,57,63,55
2025-04-11 10:14:25.559,72,155,59,64,52
2025-04-11 10:14:25.564,79,166,62,73,56
2025-04-11 10:14:25.572,99,180,66,88,65
2025-04-11 10:14:25.584,120,193,67,105,75
2025-04-11 10:14:25.592,157,221,79,143,91
2025-04-11 10:14:25.603,198,236,93,192,120
2025-04-11 10:14:25.621,249,257,104,244,149
2025-04-11 10:14:25.624,311,297,130,306,180
2025-04-11 10:14:25.632,401,350,159,390,224
2025-04-11 10:14:25.644,507,416,196,494,283
2025-04-11 10:14:25.651,659,512,247,640,363
2025-04-11 10:14:25.664,852,631,317,833,468
2025-04-11 10:14:25.685,1085,786,405,1087,602
2025-04-11 10:14:25.686,1344,962,507,1396,770
2025-04-11 10:14:25.692,1605,1153,612,1741,953
2025-04-11 10:14:25.704,1881,1358,723,2110,1150
2025-04-11 10:14:25.716,2205,1586,862,2513,1365
2025-04-11 10:14:25.724,2601,1852,1010,2963,1606
2025-04-11 10:14:25.751,3049,2131,1186,3470,1881
2025-04-11 10:14:25.752,3543,2423,1372,4022,2171
2025-04-11 10:14:25.756,4090,2754,1585,4595,2482
2025-04-11 10:14:25.763,4772,3167,1862,5257,2837
2025-04-11 10:14:25.775,5596,3653,2185,6080,3276
2025-04-11 10:14:25.784,6478,4163,2532,7007,3767
2025-04-11 10:14:25.796,7382,4703,2897,7977,4281
2025-04-11 10:14:25.816,8365,5299,3297,8978,4816
2025-04-11 10:14:25.817,9462,5965,3748,10080,5414
2025-04-11 10:14:25.824,10653,6660,4227,11317,6079
2025-04-11 10:14:25.835,11870,7327,4703,12587,6759
2025-04-11 10:14:25.844,13100,7948,5164,13803,7399
2025-04-11 10:14:25.856,14285,8528,5596,14953,8004
2025-04-11 10:14:25.863,15366,9067,6009,16009,8559
2025-04-11 10:14:25.879,16376,9607,6424,16981,9075
2025-04-11 10:14:25.884,17460,10213,6889,17962,9600
2025-04-11 10:14:25.895,18730,10921,7441,19077,10199
2025-04-11 10:14:25.904,20175,11694,8045,20401,10908
2025-04-11 10:14:25.916,21543,12419,8632,21844,11668
2025-04-11 10:14:25.927,22797,13110,9201,23157,12357
2025-04-11 10:14:25.945,24168,13854,9799,24441,13041
2025-04-11 10:14:25.948,25361,14452,10305,25775,13739
2025-04-11 10:14:25.955,26115,14814,10607,26811,14270
2025-04-11 10:14:25.967,26671,15082,10841,27389,14570
2025-04-11 10:14:25.976,27455,15541,11223,27894,14831
2025-04-11 10:14:25.987,28875,16457,11964,28843,15358
2025-04-11 10:14:26.010,31118,17910,13099,30720,16380
2025-04-11 10:14:26.011,33921,19682,14449,33577,17912
2025-04-11 10:14:26.015,36727,21436,15750,36910,19670
2025-04-11 10:14:26.027,39200,23058,16916,40133,21345
2025-04-11 10:14:26.036,41333,24743,18125,43099,22906
2025-04-11 10:14:26.047,43391,26676,19528,46252,24589
2025-04-11 10:14:26.056,46471,29355,21535,49932,26577
2025-04-11 10:14:26.074,51610,33229,24472,55226,29438
2025-04-11 10:14:26.076,57825,37437,27600,62661,33400
2025-04-11 10:14:26.088,62515,40187,29577,70112,37239
2025-04-11 10:14:26.095,64851,41206,30247,74626,39473
2025-04-11 10:14:26.107,65185,41069,30043,76102,40146
2025-04-11 10:14:26.116,64276,40328,29380,75634,39831
2025-04-11 10:14:26.138,63534,39641,28756,74243,39072
2025-04-11 10:14:26.139,63603,39191,28275,73141,38496
2025-04-11 10:14:26.148,63570,38489,27567,72363,38044
2025-04-11 10:14:26.159,63393,37742,26857,71086,37306
2025-04-11 10:14:26.168,64513,37767,26716,70037,36716
2025-04-11 10:14:26.179,67533,38737,27243,70543,36950
2025-04-11 10:14:26.202,72277,40568,28346,72922,38133
2025-04-11 10:14:26.203,78254,43043,29884,76860,40096
2025-04-11 10:14:26.207,85091,46134,31822,82031,42649
2025-04-11 10:14:26.219,92049,49483,33921,88203,45747
2025-04-11 10:14:26.228,98720,52808,36029,94568,48930
2025-04-11 10:14:26.239,105363,56283,38269,100952,52110
2025-04-11 10:14:26.248,111810,59681,40548,107386,55354
2025-04-11 10:14:26.265,117783,63055,42876,113639,58514
2025-04-11 10:14:26.268,122640,66220,45141,119763,61631
2025-04-11 10:14:26.279,124910,68561,46899,125280,64465
2025-04-11 10:14:26.283,124910,68561,46899,125280,64465
2025-04-11 10:14:26.288,121835,69986,48224,130925,67449
2025-04-11 10:14:26.299,118262,69333,47972,130617,67370
2025-04-11 10:14:26.307,115009,68183,47322,128975,66665
2025-04-11 10:14:26.329,110706,65416,45437,126344,65348
2025-04-11 10:14:26.331,104373,60827,42233,120591,62283
2025-04-11 10:14:26.340,97844,56149,38941,111960,57783
2025-04-11 10:14:26.347,93492,52742,36520,103678,53550
2025-04-11 10:14:26.359,91009,50555,34874,97967,50608
2025-04-11 10:14:26.368,89949,49365,33902,94362,48736
2025-04-11 10:14:26.393,89766,48831,33317,92575,47805
2025-04-11 10:14:26.395,88869,48130,32562,91745,47338
2025-04-11 10:14:26.399,86062,46604,31257,90280,46516
2025-04-11 10:14:26.411,81758,44478,29576,87279,44929
2025-04-11 10:14:26.420,76924,42073,27768,83183,42829
2025-04-11 10:14:26.432,72632,39818,26121,78713,40540
2025-04-11 10:14:26.439,69604,38178,24919,74668,38505
2025-04-11 10:14:26.458,68315,37483,24401,71833,37083
2025-04-11 10:14:26.459,69134,38078,24768,70945,36688
2025-04-11 10:14:26.471,71980,39937,25954,72514,37555
2025-04-11 10:14:26.479,76386,42834,27820,76371,39582
2025-04-11 10:14:26.492,81589,46392,30130,82036,42519
2025-04-11 10:14:26.500,86632,50118,32550,88804,46006
2025-04-11 10:14:26.522,90845,53537,34795,95668,49551
2025-04-11 10:14:26.524,93340,55705,36232,101751,52640
2025-04-11 10:14:26.531,93066,55647,36247,105148,54309
2025-04-11 10:14:26.539,89988,53352,34831,104342,53774
2025-04-11 10:14:26.552,84846,49724,32552,99589,51270
2025-04-11 10:14:26.559,79011,45967,30131,92777,47738
2025-04-11 10:14:26.571,73424,42599,27909,85911,44233
2025-04-11 10:14:26.587,68806,39929,26113,79840,41173
2025-04-11 10:14:26.591,65466,37988,24759,75138,38798
2025-04-11 10:14:26.599,62561,36248,23507,71699,37040
2025-04-11 10:14:26.611,59358,34331,22109,68465,35380
2025-04-11 10:14:26.619,55612,32271,20623,64815,33470
2025-04-11 10:14:26.631,52050,30507,19349,60962,31508
2025-04-11 10:14:26.649,48963,29214,18362,57777,29897
2025-04-11 10:14:26.651,46303,28210,17575,55393,28736
2025-04-11 10:14:26.663,43960,27325,16877,53530,27807
2025-04-11 10:14:26.671,42006,26569,16302,51831,26952
2025-04-11 10:14:26.683,40516,26023,15880,50430,26265
2025-04-11 10:14:26.691,39481,25688,15616,49458,25788
2025-04-11 10:14:26.713,38923,25630,15547,48914,25531
2025-04-11 10:14:26.715,38857,25909,15688,48935,25571
2025-04-11 10:14:26.723,39241,26558,16043,49597,25942
2025-04-11 10:14:26.731,39753,27382,16474,50953,26675
2025-04-11 10:14:26.743,39918,28006,16769,52501,27484
2025-04-11 10:14:26.752,39673,28295,16864,53573,28042
2025-04-11 10:14:26.779,39085,28187,16731,53999,28265
2025-04-11 10:14:26.781,38068,27517,16290,53664,28062
2025-04-11 10:14:26.783,36495,26237,15500,52226,27282
2025-04-11 10:14:26.791,34487,24603,14530,49673,25925
2025-04-11 10:14:26.804,32420,22960,13569,46545,24293
2025-04-11 10:14:26.811,30253,21236,12568,43429,22667
2025-04-11 10:14:26.823,28048,19516,11554,40134,20949
2025-04-11 10:14:26.844,26248,18143,10762,36911,19281
2025-04-11 10:14:26.845,25111,17342,10305,34458,18027
2025-04-11 10:14:26.855,24481,17034,10126,33099,17360
2025-04-11 10:14:26.863,24062,16960,10067,32617,17130
2025-04-11 10:14:26.875,23397,16691,9895,32470,17066
2025-04-11 10:14:26.882,22107,15845,9388,31830,16718
2025-04-11 10:14:26.908,20271,14498,8601,30018,15746
2025-04-11 10:14:26.909,18126,12868,7636,27335,14339
2025-04-11 10:14:26.915,15576,10950,6496,24068,12610
2025-04-11 10:14:26.923,13073,9113,5411,20302,10637
2025-04-11 10:14:26.935,11130,7712,4591,16813,8837
2025-04-11 10:14:26.944,9805,6770,4046,14232,7507
2025-04-11 10:14:26.955,8887,6111,3666,12493,6619
2025-04-11 10:14:26.973,8037,5497,3301,11252,5967
2025-04-11 10:14:26.975,7132,4853,2923,10037,5319
2025-04-11 10:14:26.983,6308,4286,2588,8791,4671
2025-04-11 10:14:26.994,5657,3849,2329,7729,4112
2025-04-11 10:14:27.003,5198,3541,2151,6934,3699
2025-04-11 10:14:27.015,4913,3355,2045,6380,3410
2025-04-11 10:14:27.036,4785,3270,1997,6049,3236
2025-04-11 10:14:27.038,4760,3255,1998,5898,3160
2025-04-11 10:14:27.042,4820,3293,2035,5878,3158
2025-04-11 10:14:27.055,4927,3359,2088,5966,3208
2025-04-11 10:14:27.063,4947,3367,2093,6095,3267
2025-04-11 10:14:27.075,4831,3287,2045,6069,3246
2025-04-11 10:14:27.100,4668,3179,1975,5893,3151
2025-04-11 10:14:27.102,4668,3179,1975,5893,3151
2025-04-11 10:14:27.103,4467,3030,1891,5522,2960
2025-04-11 10:14:27.104,4424,2996,1877,5409,2895
2025-04-11 10:14:27.115,4418,2982,1872,5341,2862
2025-04-11 10:14:27.123,4406,2973,1870,5314,2849
2025-04-11 10:14:27.135,4364,2940,1854,5284,2831
2025-04-11 10:14:27.143,4292,2888,1830,5213,2791
2025-04-11 10:14:27.164,4195,2825,1795,5119,2741
2025-04-11 10:14:27.166,4065,2740,1739,4993,2671
2025-04-11 10:14:27.175,3925,2664,1693,4822,2583
2025-04-11 10:14:27.183,3835,2609,1661,4667,2504
2025-04-11 10:14:27.195,3791,2585,1655,4570,2450
2025-04-11 10:14:27.203,3763,2567,1648,4521,2425
2025-04-11 10:14:27.229,3705,2542,1633,4474,2401
2025-04-11 10:14:27.230,3622,2497,1605,4405,2361
2025-04-11 10:14:27.234,3514,2441,1569,4303,2308
2025-04-11 10:14:27.244,3406,2379,1530,4176,2239
2025-04-11 10:14:27.254,3296,2317,1489,4054,2179
2025-04-11 10:14:27.263,3176,2251,1445,3926,2116
2025-04-11 10:14:27.274,3058,2187,1405,3786,2041
2025-04-11 10:14:27.296,2984,2144,1379,3667,1979
2025-04-11 10:14:27.297,2942,2126,1373,3588,1940
2025-04-11 10:14:27.307,2937,2121,1373,3549,1917
2025-04-11 10:14:27.315,2951,2135,1383,3538,1915
2025-04-11 10:14:27.326,2966,2149,1398,3554,1925
2025-04-11 10:14:27.336,2995,2175,1416,3580,1939
2025-04-11 10:14:27.359,3024,2201,1434,3607,1956
2025-04-11 10:14:27.360,3054,2225,1453,3634,1972
2025-04-11 10:14:27.367,3091,2253,1471,3671,1991
2025-04-11 10:14:27.374,3145,2294,1499,3712,2015
2025-04-11 10:14:27.387,3218,2351,1540,3777,2058
2025-04-11 10:14:27.394,3308,2424,1586,3864,2106
2025-04-11 10:14:27.407,3415,2504,1641,3977,2165
2025-04-11 10:14:27.423,3526,2588,1690,4105,2240
2025-04-11 10:14:27.427,3633,2672,1748,4234,2316
2025-04-11 10:14:27.435,3737,2749,1798,4359,2375
2025-04-11 10:14:27.447,3841,2820,1842,4480,2441
2025-04-11 10:14:27.455,3939,2891,1883,4587,2507
2025-04-11 10:14:27.466,4029,2961,1925,4692,2568
2025-04-11 10:14:27.489,4103,3018,1960,4786,2613
2025-04-11 10:14:27.491,4186,3078,1997,4876,2665
2025-04-11 10:14:27.495,4291,3157,2042,4970,2721
2025-04-11 10:14:27.507,4401,3238,2098,5086,2785
2025-04-11 10:14:27.514,4526,3327,2153,5222,2863
2025-04-11 10:14:27.527,4661,3427,2216,5371,2941
2025-04-11 10:14:27.534,4801,3517,2278,5530,3030
2025-04-11 10:14:27.553,4930,3603,2336,5680,3114
2025-04-11 10:14:27.555,5047,3688,2389,5821,3190
2025-04-11 10:14:27.566,5155,3752,2431,5950,3262
2025-04-11 10:14:27.574,5243,3817,2474,6066,3323
2025-04-11 10:14:27.587,5325,3873,2508,6166,3380
2025-04-11 10:14:27.594,5398,3920,2537,6252,3430
2025-04-11 10:14:27.617,5453,3954,2564,6335,3471
2025-04-11 10:14:27.618,5486,3981,2572,6393,3502
2025-04-11 10:14:27.627,5509,3989,2580,6418,3514
2025-04-11 10:14:27.634,5527,4002,2580,6437,3530
2025-04-11 10:14:27.646,5548,4016,2594,6455,3543
2025-04-11 10:14:27.654,5582,4042,2608,6489,3558
2025-04-11 10:14:27.666,5628,4076,2631,6536,3582
2025-04-11 10:14:27.682,5691,4114,2660,6593,3617
2025-04-11 10:14:27.687,5754,4156,2697,6672,3654
2025-04-11 10:14:27.699,5801,4195,2724,6744,3697
2025-04-11 10:14:27.706,5831,4216,2739,6805,3727
2025-04-11 10:14:27.718,5856,4241,2755,6847,3753
2025-04-11 10:14:27.727,5895,4271,2776,6895,3776
2025-04-11 10:14:27.745,5933,4305,2802,6952,3807
2025-04-11 10:14:27.747,5961,4323,2819,7008,3837
2025-04-11 10:14:27.758,5971,4330,2825,7038,3858
2025-04-11 10:14:27.767,5968,4330,2831,7058,3865
2025-04-11 10:14:27.779,5953,4319,2820,7057,3861
2025-04-11 10:14:27.786,5927,4304,2815,7042,3856
2025-04-11 10:14:27.811,5880,4277,2795,7007,3839
2025-04-11 10:14:27.812,5828,4233,2767,6958,3805
2025-04-11 10:14:27.818,5782,4219,2755,6894,3772
2025-04-11 10:14:27.826,5809,4240,2768,6865,3759
2025-04-11 10:14:27.838,5922,4331,2821,6919,3789
2025-04-11 10:14:27.846,6122,4473,2906,7065,3876
2025-04-11 10:14:27.858,6391,4662,3018,7308,4005
2025-04-11 10:14:27.875,6697,4865,3144,7620,4177
2025-04-11 10:14:27.878,6980,5056,3264,7952,4354
2025-04-11 10:14:27.886,7241,5223,3375,8269,4529
2025-04-11 10:14:27.899,7452,5355,3476,8549,4680
2025-04-11 10:14:27.906,7592,5443,3542,8770,4797
2025-04-11 10:14:27.919,7683,5492,3584,8920,4881
2025-04-11 10:14:27.939,7690,5490,3587,9000,4917
2025-04-11 10:14:27.941,7620,5443,3562,8987,4912
2025-04-11 10:14:27.946,7476,5352,3504,8897,4865
2025-04-11 10:14:27.958,7295,5240,3423,8740,4771
2025-04-11 10:14:27.967,7084,5103,3328,8531,4658
2025-04-11 10:14:27.978,6852,4958,3223,8307,4530
2025-04-11 10:14:27.986,6607,4796,3114,8048,4390
2025-04-11 10:14:28.004,6379,4648,3016,7781,4239
2025-04-11 10:14:28.010,6201,4516,2938,7531,4105
2025-04-11 10:14:28.018,6097,4436,2899,7341,4003
2025-04-11 10:14:28.030,6063,4396,2888,7229,3944
2025-04-11 10:14:28.037,6096,4381,2908,7202,3929
2025-04-11 10:14:28.050,6131,4374,2924,7212,3942
2025-04-11 10:14:28.069,6180,4376,2951,7237,3951
2025-04-11 10:14:28.070,6230,4373,2974,7269,3969
2025-04-11 10:14:28.079,6304,4381,3012,7310,3987
2025-04-11 10:14:28.090,6432,4430,3076,7386,4025
2025-04-11 10:14:28.091,6432,4430,3076,7386,4025
2025-04-11 10:14:28.098,6887,4615,3286,7730,4215
2025-04-11 10:14:28.110,7133,4721,3380,7979,4345
2025-04-11 10:14:28.133,7326,4791,3457,8207,4469
2025-04-11 10:14:28.134,7437,4809,3481,8375,4555
2025-04-11 10:14:28.139,7456,4776,3456,8454,4590
2025-04-11 10:14:28.150,7411,4702,3399,8440,4577
2025-04-11 10:14:28.158,7333,4603,3331,8351,4519
2025-04-11 10:14:28.170,7235,4494,3247,8228,4442
2025-04-11 10:14:28.179,7099,4369,3149,8068,4348
2025-04-11 10:14:28.197,6930,4239,3046,7862,4228
2025-04-11 10:14:28.198,6751,4105,2934,7637,4097
2025-04-11 10:14:28.210,6590,3988,2844,7401,3967
2025-04-11 10:14:28.218,6466,3898,2768,7201,3858
2025-04-11 10:14:28.231,6371,3833,2708,7042,3770
2025-04-11 10:14:28.238,6355,3810,2682,6941,3719
2025-04-11 10:14:28.262,6404,3822,2685,6915,3703
2025-04-11 10:14:28.263,6543,3887,2724,6980,3729
2025-04-11 10:14:28.270,6761,4001,2795,7135,3817
2025-04-11 10:14:28.278,7045,4160,2884,7392,3950
2025-04-11 10:14:28.289,7311,4319,2968,7717,4120
2025-04-11 10:14:28.298,7514,4437,3029,8021,4282
2025-04-11 10:14:28.309,7670,4549,3075,8271,4406
2025-04-11 10:14:28.325,7875,4683,3144,8489,4526
2025-04-11 10:14:28.329,8224,4903,3271,8784,4683
2025-04-11 10:14:28.338,8760,5231,3479,9235,4922
2025-04-11 10:14:28.350,9503,5681,3772,9910,5281
2025-04-11 10:14:28.362,10413,6236,4134,10814,5759
2025-04-11 10:14:28.370,11507,6926,4590,11914,6343
2025-04-11 10:14:28.389,12772,7737,5120,13264,7064
2025-04-11 10:14:28.390,14024,8532,5641,14804,7877
2025-04-11 10:14:28.402,15067,9193,6049,16271,8646
2025-04-11 10:14:28.410,15657,9536,6244,17410,9229
2025-04-11 10:14:28.423,15743,9532,6210,17898,9461
2025-04-11 10:14:28.430,15670,9428,6131,17800,9403
2025-04-11 10:14:28.454,15861,9501,6183,17585,9295
2025-04-11 10:14:28.455,16932,10076,6593,17824,9441
2025-04-11 10:14:28.462,19021,11200,7373,19109,10125
2025-04-11 10:14:28.470,22119,12841,8500,21444,11371
2025-04-11 10:14:28.482,26127,14923,9947,24784,13109
2025-04-11 10:14:28.490,30990,17413,11691,28969,15277
2025-04-11 10:14:28.502,36459,20207,13665,33936,17844
2025-04-11 10:14:28.519,41983,23012,15693,39382,20630
2025-04-11 10:14:28.522,47259,25688,17682,44745,23370
2025-04-11 10:14:28.530,52152,28167,19615,49815,25947
2025-04-11 10:14:28.541,56039,30131,21173,54441,28305
2025-04-11 10:14:28.550,58058,31096,22008,57823,30000
2025-04-11 10:14:28.562,59426,31603,22540,59338,30751
2025-04-11 10:14:28.582,61396,32228,23175,60305,31255
2025-04-11 10:14:28.583,63971,33075,23974,61602,31916
2025-04-11 10:14:28.593,67715,34557,25279,63405,32834
2025-04-11 10:14:28.602,73853,37215,27503,66630,34514
2025-04-11 10:14:28.614,82619,41141,30727,72200,37400
2025-04-11 10:14:28.621,93435,46083,34721,80155,41473
2025-04-11 10:14:28.645,105607,51832,39306,89954,46470
2025-04-11 10:14:28.647,117816,57814,43982,101057,52114
2025-04-11 10:14:28.654,128434,63281,48159,112304,57786
2025-04-11 10:14:28.662,136354,67600,51332,122330,62818
2025-04-11 10:14:28.674,141956,70618,53449,129964,66637
2025-04-11 10:14:28.682,145953,72431,54550,135317,69271
2025-04-11 10:14:28.694,148120,73257,54889,138300,70676
2025-04-11 10:14:28.711,149708,73958,55133,139742,71345
2025-04-11 10:14:28.714,150908,74584,55281,141006,71945
2025-04-11 10:14:28.722,152327,75379,55576,142109,72465
2025-04-11 10:14:28.733,154592,76726,56289,143663,73247
2025-04-11 10:14:28.741,158010,78881,57631,146278,74583
2025-04-11 10:14:28.754,163021,82175,59882,150417,76722
2025-04-11 10:14:28.776,168401,86204,62695,156694,79976
2025-04-11 10:14:28.777,171896,89607,65008,163988,83697
2025-04-11 10:14:28.782,174546,92438,66994,169789,86679
2025-04-11 10:14:28.793,181372,96498,69917,175085,89461
2025-04-11 10:14:28.805,191444,100894,73048,182619,93293
2025-04-11 10:14:28.814,201982,105418,76342,190279,97119
2025-04-11 10:14:28.840,215200,111823,81154,198454,101291
2025-04-11 10:14:28.841,232733,121103,88220,210318,107410
2025-04-11 10:14:28.846,253495,133670,97812,227335,116275
2025-04-11 10:14:28.853,276205,148014,108600,249905,128007
2025-04-11 10:14:28.866,295067,161854,118741,274648,140887
2025-04-11 10:14:28.874,308720,172843,126467,297624,152841
2025-04-11 10:14:28.885,315420,178565,130168,314854,161700
2025-04-11 10:14:28.903,315877,179153,130005,322971,165754
2025-04-11 10:14:28.904,315877,179153,130005,322971,165754
2025-04-11 10:14:28.906,306597,170911,123189,316034,161701
2025-04-11 10:14:28.913,303800,169161,121903,308203,157635
2025-04-11 10:14:28.926,307068,173531,125159,306693,157108
2025-04-11 10:14:28.933,317455,185185,133699,316078,162418
2025-04-11 10:14:28.946,333496,203850,147178,337924,174471
2025-04-11 10:14:28.967,349965,228180,164383,368595,192873
2025-04-11 10:14:28.968,359075,255249,183178,401303,216844
2025-04-11 10:14:28.974,350891,276926,198323,434435,244605
2025-04-11 10:14:28.985,327616,279164,201642,467278,270981
2025-04-11 10:14:28.994,294848,262080,181822,500399,286643
2025-04-11 10:14:29.005,262080,229504,164160,486661,279135
2025-04-11 10:14:29.014,229504,196416,131456,475968,245824
2025-04-11 10:14:29.031,197088,164160,98752,443008,212992
2025-04-11 10:14:29.033,198215,131456,65920,409856,199139
2025-04-11 10:14:29.046,199653,98752,52785,377024,198981
2025-04-11 10:14:29.053,199791,68766,53532,343872,199362
2025-04-11 10:14:29.065,199838,70349,54136,311360,200043
2025-04-11 10:14:29.078,199874,71902,54929,304760,200423
2025-04-11 10:14:29.095,200090,73337,55720,303953,200921
2025-04-11 10:14:29.097,200793,74642,56347,303091,201107
2025-04-11 10:14:29.105,201603,75893,56973,301855,201024
2025-04-11 10:14:29.118,202444,77206,57705,300827,201069
2025-04-11 10:14:29.126,203180,78485,58157,299832,201150
2025-04-11 10:14:29.137,203833,79850,58716,298382,201077
2025-04-11 10:14:29.159,204280,81355,59347,297213,201235
2025-04-11 10:14:29.161,204507,82795,59904,296210,201415
2025-04-11 10:14:29.165,204557,84197,60397,295146,201625
2025-04-11 10:14:29.177,204526,85443,60605,294098,201660
2025-04-11 10:14:29.186,204351,86563,60493,292662,201475
2025-04-11 10:14:29.197,204116,87640,60365,290806,201115
2025-04-11 10:14:29.206,203705,88710,60387,289176,200728
2025-04-11 10:14:29.222,203307,89729,60713,288108,200666
2025-04-11 10:14:29.225,202903,90605,61099,287723,200878
2025-04-11 10:14:29.237,202283,91331,61478,287679,201191
2025-04-11 10:14:29.246,201636,91951,61804,287620,201292
2025-04-11 10:14:29.257,201242,92515,62064,287259,201317
2025-04-11 10:14:29.266,200865,92927,62124,286708,201193
2025-04-11 10:14:29.288,200661,93341,62106,285562,200808
2025-04-11 10:14:29.289,200519,93804,62151,284219,200349
2025-04-11 10:14:29.297,200630,94244,62335,283088,200042
2025-04-11 10:14:29.305,200603,94664,62511,282326,199894
2025-04-11 10:14:29.317,200683,95054,62813,281444,199656
2025-04-11 10:14:29.326,200826,95389,63077,280374,199235
2025-04-11 10:14:29.351,200807,95640,63175,279280,198792
2025-04-11 10:14:29.353,201079,95896,63280,277936,198184
2025-04-11 10:14:29.357,201268,96241,63476,276796,197727
2025-04-11 10:14:29.369,200700,96552,63695,275996,197448
2025-04-11 10:14:29.378,200179,96962,63979,275247,197154
2025-04-11 10:14:29.389,199549,97266,64159,274795,197004
2025-04-11 10:14:29.397,199072,97450,64251,274195,196708
2025-04-11 10:14:29.416,199031,97554,64285,273342,196266
2025-04-11 10:14:29.418,199424,97592,64262,272419,195827
2025-04-11 10:14:29.430,200097,97580,64186,271287,195307
2025-04-11 10:14:29.437,200961,97631,64212,270151,194787
2025-04-11 10:14:29.449,201125,97733,64277,269136,194355
2025-04-11 10:14:29.458,201111,97895,64437,268273,193944
2025-04-11 10:14:29.480,201150,98099,64627,267499,193626
2025-04-11 10:14:29.481,201240,98274,64732,266985,193370
2025-04-11 10:14:29.489,201873,98391,64794,266479,193221
2025-04-11 10:14:29.497,202213,98729,65042,266064,193111
2025-04-11 10:14:29.510,202146,98830,65249,265866,193016
2025-04-11 10:14:29.517,202614,99053,65651,264908,192547
2025-04-11 10:14:29.528,202082,99103,65767,264632,192417
2025-04-11 10:14:29.545,202160,99198,65890,264269,192235
2025-04-11 10:14:29.549,202665,99319,65963,264043,192107
2025-04-11 10:14:29.557,202912,99388,65952,263704,192006
2025-04-11 10:14:29.568,203041,99424,65911,263249,191755
2025-04-11 10:14:29.577,203213,99491,65853,262676,191528
2025-04-11 10:14:29.588,203396,99553,65815,262161,191347
2025-04-11 10:14:29.610,203669,99626,65726,261748,191174
2025-04-11 10:14:29.611,204135,99826,65802,261416,191078
2025-04-11 10:14:29.622,204460,99991,65912,261302,191136
2025-04-11 10:14:29.629,204869,100215,66075,261179,191187
2025-04-11 10:14:29.641,205294,100482,66279,261132,191218
2025-04-11 10:14:29.649,205647,100674,66464,261105,191263
2025-04-11 10:14:29.673,205937,100855,66672,260896,191243
2025-04-11 10:14:29.675,206201,101072,66880,260737,191237
2025-04-11 10:14:29.681,206403,101251,67081,260545,191176
2025-04-11 10:14:29.689,206519,101405,67305,260359,191064
2025-04-11 10:14:29.701,206656,101559,67530,260177,191022
2025-04-11 10:14:29.709,206717,101727,67805,259984,190893
2025-04-11 10:14:29.721,206764,101943,68186,259968,190919
2025-04-11 10:14:29.738,206737,102138,68524,260140,190973
2025-04-11 10:14:29.741,206491,102295,68735,260376,191086
2025-04-11 10:14:29.749,206132,102364,68815,260603,191182
2025-04-11 10:14:29.760,205630,102402,68818,260854,191290
2025-04-11 10:14:29.769,205105,102408,68778,260986,191318
2025-04-11 10:14:29.781,204506,102404,68691,261080,191344
2025-04-11 10:14:29.804,203912,102328,68528,261083,191326
2025-04-11 10:14:29.805,203423,102182,68272,260985,191272
2025-04-11 10:14:29.809,203150,102019,67915,260764,191131
2025-04-11 10:14:29.821,203308,101794,67504,260437,190915
2025-04-11 10:14:29.829,203710,101612,67207,260011,190713
2025-04-11 10:14:29.842,204225,101484,66994,259664,190518
2025-04-11 10:14:29.849,204600,101512,66986,259420,190414
2025-04-11 10:14:29.872,204910,101586,67099,259306,190343
2025-04-11 10:14:29.874,205111,101693,67234,259281,190364
2025-04-11 10:14:29.881,205261,101821,67353,259276,190362
2025-04-11 10:14:29.893,205429,101926,67417,259273,190370
2025-04-11 10:14:29.901,205576,102049,67465,259270,190411
2025-04-11 10:14:29.905,205576,102049,67465,259270,190411
2025-04-11 10:14:29.913,205865,102324,67581,259266,190445
2025-04-11 10:14:29.921,205955,102466,67618,259310,190524
2025-04-11 10:14:29.939,206018,102595,67677,259337,190580
2025-04-11 10:14:29.941,206085,102693,67732,259338,190610
2025-04-11 10:14:29.952,206193,102770,67702,259231,190607
2025-04-11 10:14:29.960,206395,102810,67646,259157,190556
2025-04-11 10:14:29.973,206610,102843,67589,259023,190523
2025-04-11 10:14:29.980,206790,102931,67581,258933,190532
2025-04-11 10:14:30.003,206885,103040,67608,258967,190563
2025-04-11 10:14:30.005,206966,103127,67661,259053,190598
2025-04-11 10:14:30.013,206978,103204,67736,258914,190557
2025-04-11 10:14:30.021,207045,103276,67810,258835,190535
2025-04-11 10:14:30.032,207064,103355,67939,258817,190546
2025-04-11 10:14:30.041,207138,103435,68011,258829,190568
2025-04-11 10:14:30.052,207199,103526,68082,258890,190569
2025-04-11 10:14:30.070,207327,103608,68131,258886,190612
2025-04-11 10:14:30.073,207483,103765,68203,258984,190713
2025-04-11 10:14:30.081,207567,103926,68331,259147,190776
2025-04-11 10:14:30.093,207777,104096,68492,259331,190950
2025-04-11 10:14:30.101,207867,104252,68698,259503,191045
2025-04-11 10:14:30.113,207985,104468,68937,259600,191123
2025-04-11 10:14:30.138,207989,104706,69246,259764,191304
2025-04-11 10:14:30.139,207914,104997,69565,260013,191440
2025-04-11 10:14:30.141,207734,105226,69788,260484,191705
2025-04-11 10:14:30.153,207531,105382,69846,260689,191848
2025-04-11 10:14:30.161,207469,105518,69858,260836,191980
2025-04-11 10:14:30.173,207290,105618,69781,260935,192038
2025-04-11 10:14:30.180,207174,105690,69747,260995,192046
2025-04-11 10:14:30.201,207157,105790,69772,260970,192097
2025-04-11 10:14:30.202,207025,105878,69791,260991,192106
2025-04-11 10:14:30.214,206985,105992,69828,261019,192120
2025-04-11 10:14:30.225,206919,106003,69834,261011,192163
2025-04-11 10:14:30.233,206834,106048,69779,260957,192101
2025-04-11 10:14:30.245,206853,106115,69747,260846,192064
2025-04-11 10:14:30.266,206841,106184,69756,260804,192056
2025-04-11 10:14:30.267,206878,106264,69744,260721,192025
2025-04-11 10:14:30.273,206819,106302,69780,260700,192027
2025-04-11 10:14:30.284,206694,106416,69802,260708,192074
2025-04-11 10:14:30.294,206596,106501,69844,260623,192011
2025-04-11 10:14:30.304,206459,106521,69853,260577,192010
2025-04-11 10:14:30.313,206366,106589,69885,260468,191971
2025-04-11 10:14:30.330,206330,106658,69939,260433,191942
2025-04-11 10:14:30.332,206310,106679,69932,260402,191949
2025-04-11 10:14:30.345,206279,106738,69894,260370,191967
2025-04-11 10:14:30.353,206238,106762,69880,260375,191979
2025-04-11 10:14:30.365,206230,106823,69871,260366,191991
2025-04-11 10:14:30.372,206237,106928,69823,260365,191983
2025-04-11 10:14:30.397,206213,106962,69895,260375,191993
2025-04-11 10:14:30.398,206208,107013,69897,260330,191998
2025-04-11 10:14:30.405,206179,107066,69897,260220,191954
2025-04-11 10:14:30.412,206255,107097,69928,260140,191918
2025-04-11 10:14:30.424,206292,107168,69950,260037,191911
2025-04-11 10:14:30.433,206327,107205,69943,260047,191925
2025-04-11 10:14:30.444,206376,107180,69837,259894,191845
2025-04-11 10:14:30.461,206478,107103,69652,259653,191716
2025-04-11 10:14:30.465,206668,106981,69423,259289,191560
2025-04-11 10:14:30.472,206924,106808,69167,258892,191372
2025-04-11 10:14:30.484,207161,106623,68899,258469,191107
2025-04-11 10:14:30.493,207276,106346,68618,257979,190864
2025-04-11 10:14:30.505,207466,106083,68395,257419,190532
2025-04-11 10:14:30.525,207565,105859,68279,257023,190230
2025-04-11 10:14:30.526,207645,105707,68237,256792,190077
2025-04-11 10:14:30.533,207665,105575,68169,256736,189995
2025-04-11 10:14:30.544,207643,105440,68081,256705,189955
2025-04-11 10:14:30.553,207600,105258,67957,256658,189901
2025-04-11 10:14:30.564,207592,105146,67831,256568,189842
2025-04-11 10:14:30.590,207624,105035,67716,256534,189823
2025-04-11 10:14:30.592,207672,104935,67577,256473,189815
2025-04-11 10:14:30.596,207734,104878,67515,256411,189747
2025-04-11 10:14:30.605,207822,104877,67491,256362,189757
2025-04-11 10:14:30.617,207911,104892,67495,256351,189700
2025-04-11 10:14:30.624,207983,104942,67505,256389,189791
2025-04-11 10:14:30.637,208113,105012,67538,256428,189841
2025-04-11 10:14:30.653,208217,105118,67592,256553,189952
2025-04-11 10:14:30.656,208326,105194,67629,256679,190042
2025-04-11 10:14:30.665,208364,105317,67693,256859,190143
2025-04-11 10:14:30.677,208353,105372,67720,257027,190238
2025-04-11 10:14:30.685,208361,105457,67745,257036,190259
2025-04-11 10:14:30.696,208368,105512,67745,257106,190359
2025-04-11 10:14:30.718,208428,105596,67772,257126,190345
2025-04-11 10:14:30.720,208428,105596,67772,257126,190345
2025-04-11 10:14:30.721,208475,105719,67801,257079,190408
2025-04-11 10:14:30.724,208531,105792,67836,257089,190368
2025-04-11 10:14:30.736,208566,105836,67871,257136,190423
2025-04-11 10:14:30.745,208573,105925,67906,257146,190469
2025-04-11 10:14:30.756,208605,105963,67944,257113,190489
2025-04-11 10:14:30.764,208621,105996,67986,257226,190463
2025-04-11 10:14:30.782,208642,106028,68003,257174,190515
2025-04-11 10:14:30.784,208654,106045,68037,257178,190492
2025-04-11 10:14:30.797,208643,106044,68015,257122,190511
2025-04-11 10:14:30.804,208664,106041,68003,257082,190492
2025-04-11 10:14:30.816,208686,106020,67975,257066,190480
2025-04-11 10:14:30.824,208719,106077,67982,257061,190467
2025-04-11 10:14:30.848,208689,106136,67974,257123,190572
2025-04-11 10:14:30.849,208696,106146,67970,257187,190564
2025-04-11 10:14:30.857,208721,106153,67948,257143,190599
2025-04-11 10:14:30.865,208765,106166,67969,257094,190554
2025-04-11 10:14:30.877,208850,106231,68034,257087,190556
2025-04-11 10:14:30.884,208871,106350,68103,257099,190616
2025-04-11 10:14:30.896,208927,106391,68146,257210,190659
2025-04-11 10:14:30.913,208973,106476,68184,257259,190737
2025-04-11 10:14:30.917,209014,106511,68182,257356,190789
2025-04-11 10:14:30.928,209024,106595,68227,257410,190846
2025-04-11 10:14:30.936,209058,106702,68265,257476,190908
2025-04-11 10:14:30.948,209124,106792,68313,257591,190975
2025-04-11 10:14:30.956,209147,106873,68364,257690,191060
2025-04-11 10:14:30.977,209177,106942,68390,257742,191109
2025-04-11 10:14:30.979,209208,106965,68405,257750,191138
2025-04-11 10:14:30.988,209263,107020,68439,257710,191158
2025-04-11 10:14:30.996,209333,107033,68433,257698,191168
2025-04-11 10:14:31.008,209397,107072,68426,257668,191166
2025-04-11 10:14:31.016,209473,107072,68406,257627,191109
2025-04-11 10:14:31.041,209621,107109,68380,257530,191072
2025-04-11 10:14:31.042,209769,107108,68359,257466,191067
2025-04-11 10:14:31.049,209911,107136,68369,257389,191058
2025-04-11 10:14:31.056,210003,107180,68416,257315,191035
2025-04-11 10:14:31.069,210119,107246,68498,257314,191058
2025-04-11 10:14:31.076,210223,107291,68577,257282,191060
2025-04-11 10:14:31.088,210264,107330,68619,257308,191091
2025-04-11 10:14:31.106,210251,107349,68623,257297,191124
2025-04-11 10:14:31.108,210239,107412,68640,257241,191132
2025-04-11 10:14:31.116,210310,107462,68632,257298,191130
2025-04-11 10:14:31.128,210352,107497,68616,257298,191203
2025-04-11 10:14:31.137,210381,107524,68608,257314,191173
2025-04-11 10:14:31.148,210478,107513,68631,257286,191188
2025-04-11 10:14:31.170,210549,107586,68694,257260,191192
2025-04-11 10:14:31.171,210650,107645,68736,257269,191204
2025-04-11 10:14:31.177,210740,107713,68824,257314,191257
2025-04-11 10:14:31.187,210807,107789,68875,257279,191288
2025-04-11 10:14:31.200,210905,107831,68931,257323,191322
2025-04-11 10:14:31.208,211000,107897,68979,257350,191380
2025-04-11 10:14:31.234,211010,107932,68990,257396,191402
2025-04-11 10:14:31.235,210943,107894,68961,257322,191375
2025-04-11 10:14:31.240,210781,107825,68855,257135,191276
2025-04-11 10:14:31.248,210544,107678,68754,257014,191163
2025-04-11 10:14:31.260,210239,107461,68587,256768,191019
2025-04-11 10:14:31.268,209941,107203,68335,256559,190821
2025-04-11 10:14:31.281,209695,106908,68089,256350,190639
2025-04-11 10:14:31.300,209443,106587,67834,256218,190487
2025-04-11 10:14:31.301,209256,106276,67543,256087,190333
2025-04-11 10:14:31.308,209085,106027,67258,256016,190301
2025-04-11 10:14:31.320,208940,105787,66995,255971,190220
2025-04-11 10:14:31.328,208823,105559,66767,256011,190176
2025-04-11 10:14:31.340,208686,105405,66575,255956,190167
2025-04-11 10:14:31.347,208584,105269,66407,255994,190110
2025-04-11 10:14:31.364,208489,105158,66279,255980,190140
2025-04-11 10:14:31.368,208409,105086,66156,256072,190130
2025-04-11 10:14:31.379,208336,105012,66013,256022,190130
2025-04-11 10:14:31.388,208300,104928,65893,255973,190090
2025-04-11 10:14:31.400,208276,104817,65728,255869,190033
2025-04-11 10:14:31.408,208320,104718,65610,255808,189930
2025-04-11 10:14:31.429,208366,104691,65517,255673,189926
2025-04-11 10:14:31.430,208465,104666,65494,255616,189890
2025-04-11 10:14:31.440,208529,104678,65442,255644,189877
2025-04-11 10:14:31.447,208611,104682,65441,255625,189878
2025-04-11 10:14:31.460,208636,104735,65455,255735,189938
2025-04-11 10:14:31.469,208685,104746,65427,255748,189986
2025-04-11 10:14:31.496,208687,104776,65419,255748,189997
2025-04-11 10:14:31.497,208694,104795,65421,255760,189981
2025-04-11 10:14:31.499,208687,104783,65408,255721,189990
2025-04-11 10:14:31.512,208699,104807,65404,255721,190004
2025-04-11 10:14:31.519,208687,104764,65397,255687,189982
2025-04-11 10:14:31.532,208636,104771,65366,255674,189971
2025-04-11 10:14:31.540,208582,104749,65335,255693,189952
2025-04-11 10:14:31.560,208518,104711,65265,255689,189973
2025-04-11 10:14:31.561,208488,104660,65191,255688,189978
2025-04-11 10:14:31.571,208444,104622,65109,255677,189963
2025-04-11 10:14:31.579,208400,104563,65034,255662,189949
2025-04-11 10:14:31.591,208338,104462,64920,255646,189918
2025-04-11 10:14:31.600,208324,104395,64800,255463,189834
2025-04-11 10:14:31.625,208357,104264,64670,255318,189772
2025-04-11 10:14:31.626,208401,104182,64584,255130,189635
2025-04-11 10:14:31.632,208550,104182,64553,255032,189572
2025-04-11 10:14:31.640,208641,104166,64549,254979,189577
2025-04-11 10:14:31.651,208731,104204,64555,255017,189592
2025-04-11 10:14:31.660,208801,104253,64571,255028,189635
2025-04-11 10:14:31.672,208895,104306,64618,255088,189692
2025-04-11 10:14:31.689,208961,104341,64647,255191,189772
2025-04-11 10:14:31.692,208974,104414,64677,255184,189780
2025-04-11 10:14:31.700,208988,104487,64714,255213,189842
2025-04-11 10:14:31.711,209011,104508,64754,255276,189880
2025-04-11 10:14:31.716,209011,104508,64754,255276,189880
2025-04-11 10:14:31.719,209016,104597,64751,255322,189930
2025-04-11 10:14:31.732,209064,104599,64740,255361,189942
2025-04-11 10:14:31.754,209062,104675,64744,255396,189999
2025-04-11 10:14:31.755,209083,104693,64756,255361,190011
2025-04-11 10:14:31.760,209107,104721,64760,255356,190022
2025-04-11 10:14:31.772,209181,104758,64800,255363,190022
2025-04-11 10:14:31.780,209213,104797,64841,255324,190017
2025-04-11 10:14:31.792,209242,104834,64886,255320,190053
2025-04-11 10:14:31.799,209308,104885,64950,255341,190031
2025-04-11 10:14:31.818,209350,104932,64957,255434,190096
2025-04-11 10:14:31.820,209370,104953,64966,255408,190148
2025-04-11 10:14:31.832,209384,104997,64968,255405,190163
2025-04-11 10:14:31.840,209400,105026,64971,255438,190202
2025-04-11 10:14:31.851,209393,105054,64993,255417,190232
2025-04-11 10:14:31.864,209450,105060,64990,255474,190251
2025-04-11 10:14:31.883,209451,105080,64981,255446,190219
2025-04-11 10:14:31.884,209507,105086,64974,255436,190217
2025-04-11 10:14:31.892,209548,105121,64957,255417,190248
2025-04-11 10:14:31.903,209579,105129,64971,255416,190227
2025-04-11 10:14:31.912,209642,105187,64980,255419,190264
2025-04-11 10:14:31.923,209676,105207,64999,255452,190297
2025-04-11 10:14:31.932,209687,105247,65018,255532,190353
2025-04-11 10:14:31.948,209714,105287,65024,255518,190387
2025-04-11 10:14:31.952,209766,105328,65056,255537,190421
2025-04-11 10:14:31.963,209836,105344,65042,255504,190440
2025-04-11 10:14:31.971,209843,105377,65033,255518,190429
2025-04-11 10:14:31.983,209788,105392,64990,255450,190404
2025-04-11 10:14:31.991,209672,105329,64934,255337,190376
2025-04-11 10:14:32.012,209491,105208,64815,255248,190253
2025-04-11 10:14:32.013,209200,105035,64639,255132,190182
2025-04-11 10:14:32.023,208885,104730,64375,254912,189999
2025-04-11 10:14:32.032,208605,104406,64069,254636,189792
2025-04-11 10:14:32.043,208379,103993,63726,254388,189552
2025-04-11 10:14:32.051,208138,103592,63367,254185,189386
2025-04-11 10:14:32.076,207971,103191,63022,254018,189207
2025-04-11 10:14:32.077,207829,102839,62702,253936,189097
2025-04-11 10:14:32.083,207621,102487,62442,253844,189003
2025-04-11 10:14:32.091,207484,102226,62178,253800,188915
2025-04-11 10:14:32.103,207357,101937,61938,253708,188871
2025-04-11 10:14:32.116,207290,101739,61735,253643,188720
2025-04-11 10:14:32.123,207200,101546,61559,253568,188698
2025-04-11 10:14:32.141,207210,101396,61443,253525,188661
2025-04-11 10:14:32.143,207253,101306,61342,253456,188613
2025-04-11 10:14:32.151,207287,101205,61257,253453,188632
2025-04-11 10:14:32.163,207298,101187,61203,253478,188632
2025-04-11 10:14:32.176,207295,101103,61131,253491,188586
2025-04-11 10:14:32.183,207304,101031,61067,253431,188582
2025-04-11 10:14:32.206,207378,101003,61020,253375,188579
2025-04-11 10:14:32.207,207410,100917,60961,253370,188544
2025-04-11 10:14:32.215,207499,100900,60957,253315,188519
2025-04-11 10:14:32.223,207622,100876,60963,253273,188475
2025-04-11 10:14:32.236,207716,100892,60953,253234,188500
2025-04-11 10:14:32.243,207775,100913,61007,253236,188501
2025-04-11 10:14:32.270,207840,100951,60994,253239,188518
2025-04-11 10:14:32.271,207797,100919,61028,253305,188511
2025-04-11 10:14:32.276,207790,100920,61012,253260,188509
2025-04-11 10:14:32.283,207791,100889,61002,253187,188499
2025-04-11 10:14:32.296,207751,100848,60993,253155,188474
2025-04-11 10:14:32.304,207749,100843,60964,253117,188458
2025-04-11 10:14:32.315,207706,100777,60933,253157,188443
2025-04-11 10:14:32.334,207642,100731,60910,253156,188450
2025-04-11 10:14:32.336,207593,100715,60852,253136,188439
2025-04-11 10:14:32.344,207500,100645,60814,253144,188488
2025-04-11 10:14:32.355,207415,100608,60783,253203,188463
2025-04-11 10:14:32.364,207390,100566,60742,253162,188452
2025-04-11 10:14:32.375,207351,100529,60698,253143,188436
2025-04-11 10:14:32.383,207355,100490,60661,253118,188437
2025-04-11 10:14:32.399,207333,100456,60645,253130,188425
2025-04-11 10:14:32.403,207324,100463,60616,253083,188447
2025-04-11 10:14:32.416,207350,100466,60617,253149,188415
2025-04-11 10:14:32.423,207351,100464,60624,253121,188471
2025-04-11 10:14:32.436,207365,100504,60649,253169,188460
2025-04-11 10:14:32.443,207354,100541,60679,253169,188472
2025-04-11 10:14:32.464,207374,100561,60683,253187,188486
2025-04-11 10:14:32.466,207429,100565,60702,253209,188538
2025-04-11 10:14:32.475,207519,100579,60714,253176,188505
2025-04-11 10:14:32.487,207609,100608,60723,253080,188502
2025-04-11 10:14:32.495,207684,100622,60753,253090,188497
2025-04-11 10:14:32.508,207757,100659,60759,253075,188501
2025-04-11 10:14:32.527,207796,100680,60806,253081,188551
2025-04-11 10:14:32.529,207809,100747,60829,253068,188537
2025-04-11 10:14:32.536,207863,100777,60857,253032,188569
2025-04-11 10:14:32.547,207881,100808,60888,253074,188541
2025-04-11 10:14:32.555,207898,100841,60943,253101,188598
2025-04-11 10:14:32.567,207943,100858,60974,253089,188589
2025-04-11 10:14:32.576,207914,100911,61006,253089,188610
2025-04-11 10:14:32.594,207919,100997,61073,253150,188623
2025-04-11 10:14:32.596,207903,101004,61119,253226,188727
2025-04-11 10:14:32.607,207901,101032,61136,253231,188747
2025-04-11 10:14:32.616,207929,101070,61150,253225,188729
2025-04-11 10:14:32.627,208012,101052,61180,253204,188760
2025-04-11 10:14:32.635,208111,101091,61187,253184,188742
2025-04-11 10:14:32.658,208130,101100,61208,253160,188771
2025-04-11 10:14:32.660,208195,101148,61228,253178,188789
2025-04-11 10:14:32.667,208202,101191,61230,253153,188808
2025-04-11 10:14:32.675,208254,101199,61249,253226,188833
2025-04-11 10:14:32.687,208251,101227,61300,253229,188863
2025-04-11 10:14:32.696,208249,101284,61316,253233,188872
2025-04-11 10:14:32.707,208279,101308,61325,253256,188919
2025-04-11 10:14:32.724,208314,101322,61344,253273,188950
2025-04-11 10:14:32.725,208314,101322,61344,253273,188950
2025-04-11 10:14:32.728,208447,101410,61395,253244,188953
2025-04-11 10:14:32.736,208509,101435,61457,253231,188967
2025-04-11 10:14:32.747,208601,101498,61472,253281,189011
2025-04-11 10:14:32.755,208628,101549,61513,253288,189037
2025-04-11 10:14:32.768,208626,101530,61514,253208,189011
2025-04-11 10:14:32.788,208486,101497,61478,253175,188983
2025-04-11 10:14:32.789,208259,101368,61364,253037,188905
2025-04-11 10:14:32.796,207917,101154,61185,252933,188800
2025-04-11 10:14:32.807,207558,100853,60896,252771,188639
2025-04-11 10:14:32.818,207167,100431,60577,252632,188445
2025-04-11 10:14:32.827,206831,99993,60191,252433,188247
2025-04-11 10:14:32.853,206477,99521,59827,252218,188088
2025-04-11 10:14:32.854,206230,99095,59457,252045,187888
2025-04-11 10:14:32.859,206012,98662,59160,251881,187705
2025-04-11 10:14:32.866,205826,98325,58889,251743,187597
2025-04-11 10:14:32.880,205710,98012,58690,251690,187484
2025-04-11 10:14:32.887,205603,97749,58495,251606,187411
2025-04-11 10:14:32.898,205563,97535,58360,251591,187354
2025-04-11 10:14:32.917,205537,97411,58259,251565,187319
2025-04-11 10:14:32.919,205478,97302,58152,251620,187321
2025-04-11 10:14:32.928,205432,97212,58046,251567,187289
2025-04-11 10:14:32.939,205407,97138,58027,251627,187280
2025-04-11 10:14:32.947,205340,97075,58003,251576,187274
2025-04-11 10:14:32.959,205302,97026,57922,251553,187226
2025-04-11 10:14:32.983,205265,96941,57904,251500,187216
2025-04-11 10:14:32.984,205242,96896,57880,251478,187183
2025-04-11 10:14:32.987,205275,96867,57855,251442,187162
2025-04-11 10:14:32.999,205324,96871,57883,251392,187124
2025-04-11 10:14:33.007,205362,96891,57926,251416,187112
2025-04-11 10:14:33.019,205385,96924,57974,251438,187135
2025-04-11 10:14:33.027,205413,96974,58036,251496,187183
2025-04-11 10:14:33.049,205452,97016,58054,251496,187214
2025-04-11 10:14:33.050,205448,96976,58073,251530,187217
2025-04-11 10:14:33.059,205453,96951,58059,251518,187184
2025-04-11 10:14:33.067,205465,96879,58025,251437,187170
2025-04-11 10:14:33.079,205440,96865,57994,251377,187138
2025-04-11 10:14:33.091,205412,96773,57964,251373,187111
2025-04-11 10:14:33.113,205369,96751,57947,251312,187086
2025-04-11 10:14:33.114,205340,96661,57906,251341,187084
2025-04-11 10:14:33.119,205275,96600,57874,251273,187039
2025-04-11 10:14:33.131,205279,96565,57852,251210,187015
2025-04-11 10:14:33.139,205271,96504,57814,251185,186983
2025-04-11 10:14:33.151,205291,96444,57798,251103,186973
2025-04-11 10:14:33.159,205343,96421,57803,251143,186950
2025-04-11 10:14:33.179,205322,96462,57814,251160,186952
2025-04-11 10:14:33.180,205341,96458,57826,251173,186984
2025-04-11 10:14:33.191,205390,96449,57848,251238,187001
2025-04-11 10:14:33.199,205426,96493,57887,251252,187056
2025-04-11 10:14:33.210,205460,96508,57929,251215,187060
2025-04-11 10:14:33.218,205509,96588,57980,251283,187097
2025-04-11 10:14:33.243,205534,96639,58013,251289,187141
2025-04-11 10:14:33.245,205582,96698,58039,251376,187176
2025-04-11 10:14:33.251,205597,96722,58059,251406,187198
2025-04-11 10:14:33.259,205587,96785,58071,251495,187250
2025-04-11 10:14:33.271,205609,96802,58073,251487,187271
2025-04-11 10:14:33.278,205628,96822,58113,251449,187270
2025-04-11 10:14:33.291,205737,96861,58159,251406,187272
2025-04-11 10:14:33.309,205775,96938,58192,251440,187281
2025-04-11 10:14:33.311,205885,96950,58247,251448,187305
2025-04-11 10:14:33.320,205956,97035,58306,251469,187348
2025-04-11 10:14:33.330,205957,97101,58361,251532,187378
2025-04-11 10:14:33.339,205954,97166,58393,251607,187422
2025-04-11 10:14:33.350,205953,97197,58461,251668,187461
2025-04-11 10:14:33.374,205989,97278,58516,251705,187503
2025-04-11 10:14:33.376,205960,97312,58566,251775,187553
2025-04-11 10:14:33.384,205939,97387,58617,251824,187619
2025-04-11 10:14:33.391,205928,97402,58649,251859,187655
2025-04-11 10:14:33.403,205870,97448,58661,251931,187671
2025-04-11 10:14:33.410,205846,97501,58692,252019,187710
2025-04-11 10:14:33.422,205820,97559,58725,252056,187769
2025-04-11 10:14:33.440,205745,97567,58733,252120,187805
2025-04-11 10:14:33.443,205675,97582,58745,252192,187824
2025-04-11 10:14:33.450,205670,97648,58781,252162,187821
2025-04-11 10:14:33.463,205649,97690,58839,252288,187873
2025-04-11 10:14:33.471,205661,97708,58880,252311,187945
2025-04-11 10:14:33.482,205653,97719,58930,252335,187914
2025-04-11 10:14:33.505,205673,97772,58974,252370,187955
2025-04-11 10:14:33.506,205661,97795,59006,252407,187956
2025-04-11 10:14:33.511,205667,97819,59038,252429,187987
2025-04-11 10:14:33.523,205645,97876,59082,252454,188009
2025-04-11 10:14:33.526,205645,97876,59082,252454,188009
2025-04-11 10:14:33.530,205628,97924,59108,252511,188068
2025-04-11 10:14:33.543,205637,97964,59150,252538,188080
2025-04-11 10:14:33.552,205610,98033,59173,252592,188102
2025-04-11 10:14:33.570,205638,98072,59204,252621,188167
2025-04-11 10:14:33.572,205627,98138,59230,252704,188178
2025-04-11 10:14:33.583,205624,98162,59283,252746,188247
2025-04-11 10:14:33.590,205624,98216,59314,252715,188232
2025-04-11 10:14:33.602,205644,98225,59376,252745,188268
2025-04-11 10:14:33.611,205624,98268,59406,252749,188240
2025-04-11 10:14:33.635,205500,98223,59382,252717,188230
2025-04-11 10:14:33.636,205271,98102,59301,252660,188186
2025-04-11 10:14:33.643,204965,97858,59128,252531,188034
2025-04-11 10:14:33.654,204596,97514,58887,252391,187922
2025-04-11 10:14:33.663,204164,97104,58563,252275,187774
2025-04-11 10:14:33.674,203724,96588,58170,252104,187550
2025-04-11 10:14:33.683,203373,96050,57760,251814,187272
2025-04-11 10:14:33.700,203048,95477,57373,251586,187038
2025-04-11 10:14:33.702,202797,94985,57021,251364,186842
2025-04-11 10:14:33.714,202630,94523,56730,251169,186652
2025-04-11 10:14:33.722,202460,94167,56497,251085,186532
2025-04-11 10:14:33.735,202302,93864,56304,250999,186418
2025-04-11 10:14:33.742,202210,93646,56198,250949,186333
2025-04-11 10:14:33.764,202138,93490,56093,250996,186268
2025-04-11 10:14:33.766,202074,93327,56038,251017,186262
2025-04-11 10:14:33.774,201987,93205,55955,251053,186248
2025-04-11 10:14:33.782,201949,93106,55954,251047,186217
2025-04-11 10:14:33.794,201877,93019,55927,251044,186187
2025-04-11 10:14:33.802,201817,92960,55931,251094,186149
2025-04-11 10:14:33.829,201749,92888,55923,251072,186150
2025-04-11 10:14:33.830,201696,92809,55927,251034,186105
2025-04-11 10:14:33.835,201696,92776,55949,251033,186037
2025-04-11 10:14:33.842,201688,92767,55983,251030,186053
2025-04-11 10:14:33.855,201690,92715,56012,251033,186057
2025-04-11 10:14:33.862,201747,92690,56065,251020,186038
2025-04-11 10:14:33.875,201752,92704,56081,250948,186035
2025-04-11 10:14:33.893,201754,92681,56111,250969,186017
2025-04-11 10:14:33.895,201747,92661,56130,250915,185988
2025-04-11 10:14:33.903,201685,92625,56111,250875,185931
2025-04-11 10:14:33.915,201651,92563,56141,250876,185915
2025-04-11 10:14:33.926,201528,92506,56156,250915,185921
2025-04-11 10:14:33.934,201419,92445,56137,250949,185926
2025-04-11 10:14:33.959,201363,92345,56101,250864,185861
2025-04-11 10:14:33.961,201228,92276,56070,250854,185847
2025-04-11 10:14:33.966,201186,92178,56032,250775,185747
2025-04-11 10:14:33.975,201129,92107,55987,250776,185764
2025-04-11 10:14:33.987,201044,92011,55968,250760,185695
2025-04-11 10:14:33.994,201050,91975,55939,250745,185701
2025-04-11 10:14:34.007,201004,91940,55913,250765,185730
2025-04-11 10:14:34.025,200951,91875,55911,250809,185732
2025-04-11 10:14:34.026,200945,91869,55903,250795,185705
2025-04-11 10:14:34.034,200970,91806,55916,250794,185664
2025-04-11 10:14:34.046,200974,91836,55934,250731,185666
2025-04-11 10:14:34.055,201003,91787,55964,250725,185640
2025-04-11 10:14:34.066,201047,91819,56017,250693,185630
2025-04-11 10:14:34.089,201087,91867,56078,250718,185663
2025-04-11 10:14:34.091,201128,91913,56144,250759,185684
2025-04-11 10:14:34.094,201158,91997,56218,250881,185742
2025-04-11 10:14:34.106,201155,92020,56257,250936,185798
2025-04-11 10:14:34.114,201154,92080,56336,250996,185820
2025-04-11 10:14:34.126,201165,92134,56384,251015,185846
2025-04-11 10:14:34.133,201167,92180,56445,251066,185898
2025-04-11 10:14:34.157,201171,92220,56485,251102,185881
2025-04-11 10:14:34.159,201153,92276,56497,251116,185928
2025-04-11 10:14:34.167,201115,92331,56589,251156,185955
2025-04-11 10:14:34.174,201073,92382,56594,251196,185990
2025-04-11 10:14:34.187,201034,92395,56603,251215,186002
2025-04-11 10:14:34.199,201052,92452,56657,251236,186007
2025-04-11 10:14:34.206,201110,92441,56668,251291,186038
2025-04-11 10:14:34.225,201109,92495,56701,251271,186098
2025-04-11 10:14:34.227,201114,92484,56723,251318,186070
2025-04-11 10:14:34.238,201142,92526,56763,251363,186102
2025-04-11 10:14:34.246,201108,92538,56775,251331,186096
2025-04-11 10:14:34.258,201099,92588,56813,251398,186133
2025-04-11 10:14:34.266,201113,92616,56823,251394,186112
2025-04-11 10:14:34.289,201118,92607,56853,251418,186150
2025-04-11 10:14:34.291,201139,92644,56870,251383,186099
2025-04-11 10:14:34.298,201153,92644,56892,251356,186109
2025-04-11 10:14:34.306,201203,92690,56920,251314,186092
2025-04-11 10:14:34.318,201235,92709,56925,251361,186139
2025-04-11 10:14:34.330,201257,92781,56966,251380,186152
2025-04-11 10:14:34.332,201257,92781,56966,251380,186152
2025-04-11 10:14:34.338,201305,92808,57028,251448,186186
2025-04-11 10:14:34.355,201360,92860,57061,251454,186191
2025-04-11 10:14:34.358,201399,92899,57120,251428,186191
2025-04-11 10:14:34.366,201448,92962,57170,251471,186232
