Timestamp,PPG1,PPG2,PPG3,PPG4,PPG5
2025-04-14 12:38:29.499,87009,18973,21574,73478,96217
2025-04-14 12:38:29.548,87012,18966,21579,73487,96206
2025-04-14 12:38:29.550,87012,18972,21574,73474,96192
2025-04-14 12:38:29.552,87010,18964,21577,73474,96200
2025-04-14 12:38:29.556,87000,18968,21575,73481,96209
2025-04-14 12:38:29.557,86994,18963,21578,73480,96200
2025-04-14 12:38:29.559,86986,18961,21573,73480,96208
2025-04-14 12:38:29.560,86988,18954,21574,73494,96205
2025-04-14 12:38:29.562,86980,18954,21569,73496,96216
2025-04-14 12:38:29.564,86974,18952,21571,73512,96223
2025-04-14 12:38:29.566,86968,18954,21572,73520,96224
2025-04-14 12:38:29.570,86958,18949,21571,73517,96249
2025-04-14 12:38:29.573,86946,18953,21565,73524,96237
2025-04-14 12:38:29.575,86952,18951,21571,73517,96244
2025-04-14 12:38:29.577,86932,18952,21571,73526,96245
2025-04-14 12:38:29.579,86948,18949,21573,73526,96247
2025-04-14 12:38:29.581,86936,18950,21574,73513,96253
2025-04-14 12:38:29.583,86934,18955,21567,73516,96254
2025-04-14 12:38:29.586,86937,18949,21579,73505,96251
2025-04-14 12:38:29.588,86932,18958,21577,73502,96237
2025-04-14 12:38:29.591,86948,18956,21579,73484,96234
2025-04-14 12:38:30.048,86945,18957,21581,73479,96219
2025-04-14 12:38:30.050,86959,18959,21581,73460,96214
2025-04-14 12:38:30.051,86964,18961,21587,73459,96200
2025-04-14 12:38:30.052,86966,18969,21588,73452,96206
2025-04-14 12:38:30.052,86970,18974,21591,73446,96195
2025-04-14 12:38:30.053,86982,18976,21594,73454,96191
2025-04-14 12:38:30.054,86987,18978,21597,73445,96194
2025-04-14 12:38:30.055,86987,18981,21603,73449,96188
2025-04-14 12:38:30.056,86989,18984,21604,73460,96195
2025-04-14 12:38:30.056,86999,18989,21612,73471,96193
2025-04-14 12:38:30.057,86995,18995,21613,73480,96197
2025-04-14 12:38:30.058,86999,18999,21615,73475,96220
2025-04-14 12:38:30.058,86996,19005,21625,73485,96215
2025-04-14 12:38:30.059,86999,19004,21629,73489,96221
2025-04-14 12:38:30.060,86988,19009,21628,73498,96228
2025-04-14 12:38:30.061,86995,19011,21631,73501,96243
2025-04-14 12:38:30.063,86989,19016,21634,73508,96240
2025-04-14 12:38:30.065,86988,19012,21639,73516,96235
2025-04-14 12:38:30.066,86985,19016,21640,73513,96237
2025-04-14 12:38:30.069,86988,19018,21647,73522,96240
2025-04-14 12:38:30.070,86984,19028,21649,73533,96248
2025-04-14 12:38:30.071,86992,19030,21650,73538,96249
2025-04-14 12:38:30.072,86996,19030,21655,73553,96260
2025-04-14 12:38:30.073,87002,19036,21663,73566,96259
2025-04-14 12:38:30.074,87006,19046,21664,73589,96277
2025-04-14 12:38:30.075,87010,19049,21667,73601,96307
2025-04-14 12:38:30.075,86998,19054,21679,73635,96323
2025-04-14 12:38:30.076,87009,19058,21681,73655,96345
2025-04-14 12:38:30.077,87003,19072,21690,73689,96371
2025-04-14 12:38:30.078,86990,19074,21696,73703,96392
2025-04-14 12:38:30.078,86977,19078,21699,73731,96406
2025-04-14 12:38:30.079,86978,19083,21703,73752,96436
2025-04-14 12:38:30.080,86976,19076,21701,73782,96452
2025-04-14 12:38:30.081,86970,19068,21698,73797,96469
2025-04-14 12:38:30.081,86964,19056,21690,73816,96500
2025-04-14 12:38:30.082,86951,19042,21679,73831,96517
2025-04-14 12:38:30.083,86932,19024,21668,73844,96520
2025-04-14 12:38:30.084,86916,19008,21657,73857,96548
2025-04-14 12:38:30.086,86904,18990,21642,73864,96550
2025-04-14 12:38:30.087,86882,18974,21631,73880,96560
2025-04-14 12:38:30.087,86871,18959,21619,73888,96576
2025-04-14 12:38:30.088,86875,18954,21612,73909,96587
2025-04-14 12:38:30.089,86862,18945,21602,73919,96606
2025-04-14 12:38:30.090,86861,18943,21603,73943,96624
2025-04-14 12:38:30.090,86844,18937,21601,73982,96648
2025-04-14 12:38:30.091,86844,18937,21601,73982,96648
2025-04-14 12:38:30.092,86859,18942,21607,74047,96702
2025-04-14 12:38:30.092,86867,18945,21605,74079,96731
2025-04-14 12:38:30.093,86881,18953,21611,74121,96767
2025-04-14 12:38:30.094,86887,18957,21620,74150,96799
2025-04-14 12:38:30.094,86889,18968,21628,74185,96829
2025-04-14 12:38:30.111,86896,18978,21633,74231,96870
2025-04-14 12:38:30.112,86907,18984,21643,74262,96907
2025-04-14 12:38:30.121,86922,19001,21653,74290,96937
2025-04-14 12:38:30.130,86944,19008,21661,74324,96962
2025-04-14 12:38:30.141,86969,19018,21670,74354,97001
2025-04-14 12:38:30.148,86976,19025,21675,74387,97025
2025-04-14 12:38:30.175,86980,19032,21680,74400,97050
2025-04-14 12:38:30.176,86998,19029,21683,74422,97087
2025-04-14 12:38:30.182,87006,19035,21688,74442,97103
2025-04-14 12:38:30.189,87017,19042,21693,74462,97120
2025-04-14 12:38:30.201,87028,19040,21691,74482,97153
2025-04-14 12:38:30.208,87028,19037,21692,74496,97166
2025-04-14 12:38:30.221,87026,19037,21696,74507,97183
2025-04-14 12:38:30.238,87035,19039,21692,74521,97184
2025-04-14 12:38:30.242,87034,19038,21691,74525,97198
2025-04-14 12:38:30.249,87034,19035,21692,74536,97212
2025-04-14 12:38:30.262,87033,19035,21691,74554,97212
2025-04-14 12:38:30.270,87039,19035,21694,74548,97224
2025-04-14 12:38:30.281,87043,19036,21691,74572,97244
2025-04-14 12:38:30.302,87029,19036,21697,74585,97255
2025-04-14 12:38:30.303,87041,19043,21701,74587,97270
2025-04-14 12:38:30.310,87038,19044,21704,74596,97253
2025-04-14 12:38:30.322,87046,19043,21709,74608,97278
2025-04-14 12:38:30.329,87051,19049,21704,74606,97287
2025-04-14 12:38:30.342,87055,19055,21712,74610,97287
2025-04-14 12:38:30.349,87068,19059,21711,74605,97287
2025-04-14 12:38:30.365,87077,19063,21718,74611,97276
2025-04-14 12:38:30.373,87078,19068,21721,74610,97283
2025-04-14 12:38:30.382,87088,19072,21729,74593,97270
2025-04-14 12:38:30.394,87091,19077,21726,74605,97251
2025-04-14 12:38:30.401,87093,19080,21730,74587,97249
2025-04-14 12:38:30.413,87109,19088,21739,74592,97239
2025-04-14 12:38:30.428,87111,19093,21743,74589,97254
2025-04-14 12:38:30.434,87117,19101,21750,74588,97245
2025-04-14 12:38:30.441,87119,19114,21754,74587,97241
2025-04-14 12:38:30.453,87128,19113,21762,74591,97246
2025-04-14 12:38:30.462,87130,19120,21763,74587,97262
2025-04-14 12:38:30.474,87129,19127,21768,74585,97259
2025-04-14 12:38:30.491,87130,19129,21779,74578,97262
2025-04-14 12:38:30.493,87132,19135,21784,74581,97255
2025-04-14 12:38:30.501,87126,19139,21787,74578,97253
2025-04-14 12:38:30.513,87113,19140,21790,74580,97248
2025-04-14 12:38:30.521,87115,19151,21797,74584,97251
2025-04-14 12:38:30.534,87110,19150,21799,74586,97254
2025-04-14 12:38:30.554,87111,19159,21807,74590,97264
2025-04-14 12:38:30.555,87085,19162,21807,74600,97253
2025-04-14 12:38:30.561,87096,19168,21819,74613,97273
2025-04-14 12:38:30.573,87080,19171,21816,74592,97278
2025-04-14 12:38:30.581,87086,19175,21822,74594,97263
2025-04-14 12:38:30.593,87073,19178,21828,74593,97275
2025-04-14 12:38:30.617,87070,19183,21832,74599,97270
2025-04-14 12:38:30.619,87073,19184,21838,74604,97276
2025-04-14 12:38:30.626,87060,19191,21841,74599,97280
2025-04-14 12:38:30.633,87064,19190,21851,74591,97280
2025-04-14 12:38:30.645,87054,19194,21852,74585,97278
2025-04-14 12:38:30.653,87050,19195,21856,74581,97273
2025-04-14 12:38:30.666,87039,19196,21853,74567,97261
2025-04-14 12:38:30.681,87029,19197,21854,74554,97252
2025-04-14 12:38:30.685,87021,19188,21850,74536,97231
2025-04-14 12:38:30.694,87014,19174,21841,74523,97203
2025-04-14 12:38:30.705,86999,19160,21831,74507,97177
2025-04-14 12:38:30.714,86987,19140,21819,74474,97160
2025-04-14 12:38:30.725,86964,19117,21803,74456,97125
2025-04-14 12:38:30.744,86943,19099,21790,74430,97108
2025-04-14 12:38:30.746,86921,19078,21777,74408,97081
2025-04-14 12:38:30.753,86900,19058,21762,74393,97066
2025-04-14 12:38:30.765,86895,19043,21751,74378,97056
2025-04-14 12:38:30.774,86877,19031,21739,74383,97036
2025-04-14 12:38:30.785,86874,19019,21733,74375,97025
2025-04-14 12:38:30.792,86859,19006,21733,74368,97041
2025-04-14 12:38:30.808,86855,19006,21724,74376,97023
2025-04-14 12:38:30.813,86864,19001,21725,74368,97038
2025-04-14 12:38:30.825,86852,19000,21725,74367,97029
2025-04-14 12:38:30.834,86869,19002,21722,74359,97019
2025-04-14 12:38:30.845,86869,18998,21720,74348,97006
2025-04-14 12:38:30.854,86877,19003,21724,74333,97004
2025-04-14 12:38:30.870,86891,19005,21724,74335,96996
2025-04-14 12:38:30.873,86917,19005,21728,74313,96965
2025-04-14 12:38:30.885,86923,19011,21730,74277,96954
2025-04-14 12:38:30.893,86938,19015,21732,74249,96928
2025-04-14 12:38:30.905,86946,19016,21737,74217,96902
2025-04-14 12:38:30.918,86967,19020,21736,74195,96857
2025-04-14 12:38:30.933,86969,19020,21740,74160,96844
2025-04-14 12:38:30.937,86982,19019,21734,74128,96802
2025-04-14 12:38:30.945,86983,19020,21736,74099,96778
2025-04-14 12:38:30.956,86993,19021,21736,74070,96747
2025-04-14 12:38:30.965,87006,19020,21737,74056,96720
2025-04-14 12:38:30.977,86994,19015,21736,74039,96712
2025-04-14 12:38:30.997,87001,19010,21733,74036,96701
2025-04-14 12:38:30.998,86995,19007,21728,74013,96679
2025-04-14 12:38:31.005,86984,19005,21731,74014,96664
2025-04-14 12:38:31.016,86982,19002,21728,73998,96662
2025-04-14 12:38:31.026,86972,18995,21724,73997,96652
2025-04-14 12:38:31.038,86960,18997,21721,73995,96651
2025-04-14 12:38:31.060,86953,18991,21721,73988,96648
2025-04-14 12:38:31.061,86953,18991,21721,73988,96648
2025-04-14 12:38:31.062,86927,18983,21719,73978,96620
2025-04-14 12:38:31.065,86926,18987,21720,73975,96626
2025-04-14 12:38:31.076,86906,18982,21720,73974,96609
2025-04-14 12:38:31.086,86897,18984,21721,73961,96613
2025-04-14 12:38:31.097,86899,18985,21719,73960,96592
2025-04-14 12:38:31.105,86892,18980,21722,73942,96594
2025-04-14 12:38:31.122,86891,18977,21722,73925,96567
2025-04-14 12:38:31.125,86886,18977,21720,73922,96569
2025-04-14 12:38:31.137,86894,18978,21720,73898,96535
2025-04-14 12:38:31.145,86888,18982,21722,73885,96536
2025-04-14 12:38:31.157,86895,18982,21721,73861,96514
2025-04-14 12:38:31.165,86889,18974,21726,73850,96493
2025-04-14 12:38:31.186,86890,18975,21721,73828,96470
2025-04-14 12:38:31.189,86895,18979,21725,73805,96451
2025-04-14 12:38:31.197,86891,18976,21722,73790,96425
2025-04-14 12:38:31.209,86895,18975,21722,73778,96412
2025-04-14 12:38:31.217,86888,18978,21728,73769,96388
2025-04-14 12:38:31.229,86903,18981,21730,73754,96384
2025-04-14 12:38:31.250,86897,18983,21732,73762,96389
2025-04-14 12:38:31.251,86899,18987,21736,73754,96382
2025-04-14 12:38:31.257,86898,18993,21740,73752,96390
2025-04-14 12:38:31.269,86893,18993,21739,73760,96388
2025-04-14 12:38:31.277,86876,18994,21741,73757,96388
2025-04-14 12:38:31.289,86875,18989,21744,73760,96399
2025-04-14 12:38:31.296,86863,18993,21745,73752,96398
2025-04-14 12:38:31.313,86855,18996,21749,73761,96394
2025-04-14 12:38:31.317,86849,18995,21746,73756,96398
2025-04-14 12:38:31.329,86843,18999,21749,73755,96398
2025-04-14 12:38:31.336,86835,18995,21747,73755,96387
2025-04-14 12:38:31.348,86832,19003,21758,73756,96396
2025-04-14 12:38:31.357,86825,19002,21755,73766,96388
2025-04-14 12:38:31.376,86831,19005,21760,73775,96405
2025-04-14 12:38:31.378,86822,19009,21763,73798,96418
2025-04-14 12:38:31.390,86825,19008,21770,73787,96422
2025-04-14 12:38:31.396,86810,19018,21772,73799,96445
2025-04-14 12:38:31.409,86799,19017,21776,73807,96451
2025-04-14 12:38:31.421,86798,19019,21777,73803,96449
2025-04-14 12:38:31.441,86791,19021,21780,73801,96457
2025-04-14 12:38:31.443,86802,19013,21779,73795,96447
2025-04-14 12:38:31.450,86789,19012,21773,73785,96443
2025-04-14 12:38:31.461,86796,18999,21768,73776,96422
2025-04-14 12:38:31.469,86783,18978,21757,73764,96413
2025-04-14 12:38:31.480,86754,18963,21746,73736,96386
2025-04-14 12:38:31.489,86740,18944,21725,73717,96374
2025-04-14 12:38:31.504,86718,18925,21714,73698,96364
2025-04-14 12:38:31.509,86702,18897,21695,73685,96344
2025-04-14 12:38:31.521,86684,18883,21681,73666,96330
2025-04-14 12:38:31.528,86673,18860,21661,73665,96296
2025-04-14 12:38:31.541,86663,18845,21651,73645,96306
2025-04-14 12:38:31.548,86660,18830,21644,73641,96285
2025-04-14 12:38:31.567,86671,18818,21633,73632,96273
2025-04-14 12:38:31.569,86663,18817,21626,73638,96275
2025-04-14 12:38:31.582,86672,18809,21632,73645,96283
2025-04-14 12:38:31.589,86683,18809,21627,73655,96281
2025-04-14 12:38:31.601,86692,18809,21627,73652,96294
2025-04-14 12:38:31.608,86707,18810,21626,73666,96290
2025-04-14 12:38:31.631,86726,18819,21635,73678,96299
2025-04-14 12:38:31.632,86743,18827,21641,73691,96311
2025-04-14 12:38:31.641,86761,18832,21647,73705,96331
2025-04-14 12:38:31.653,86772,18838,21652,73705,96328
2025-04-14 12:38:31.661,86793,18851,21661,73718,96346
2025-04-14 12:38:31.668,86812,18856,21661,73713,96361
2025-04-14 12:38:31.695,86807,18865,21668,73709,96347
2025-04-14 12:38:31.696,86831,18868,21669,73699,96338
2025-04-14 12:38:31.700,86847,18871,21675,73675,96337
2025-04-14 12:38:31.712,86858,18874,21678,73664,96333
2025-04-14 12:38:31.721,86866,18876,21676,73635,96323
2025-04-14 12:38:31.733,86884,18877,21673,73606,96273
2025-04-14 12:38:31.741,86904,18872,21670,73590,96252
2025-04-14 12:38:31.758,86926,18870,21667,73555,96219
2025-04-14 12:38:31.761,86933,18859,21656,73524,96197
2025-04-14 12:38:31.773,86932,18859,21657,73493,96175
2025-04-14 12:38:31.780,86954,18850,21655,73454,96141
2025-04-14 12:38:31.793,86962,18846,21652,73429,96114
2025-04-14 12:38:31.800,86975,18845,21648,73400,96095
2025-04-14 12:38:31.821,86995,18845,21644,73385,96074
2025-04-14 12:38:31.823,87011,18844,21641,73361,96051
2025-04-14 12:38:31.833,87014,18846,21640,73344,96052
2025-04-14 12:38:31.841,87038,18842,21641,73325,96032
2025-04-14 12:38:31.853,87058,18843,21647,73299,96009
2025-04-14 12:38:31.856,87058,18843,21647,73299,96009
2025-04-14 12:38:31.860,87091,18847,21645,73256,95997
2025-04-14 12:38:31.886,87102,18850,21650,73237,95967
2025-04-14 12:38:31.887,87114,18857,21650,73221,95955
2025-04-14 12:38:31.894,87131,18859,21652,73189,95942
2025-04-14 12:38:31.901,87154,18858,21651,73157,95916
2025-04-14 12:38:31.913,87151,18865,21650,73115,95875
2025-04-14 12:38:31.920,87158,18867,21654,73082,95837
2025-04-14 12:38:31.932,87172,18867,21653,73032,95803
2025-04-14 12:38:31.949,87170,18866,21652,72986,95757
2025-04-14 12:38:31.953,87183,18868,21655,72932,95718
2025-04-14 12:38:31.964,87201,18868,21649,72883,95672
2025-04-14 12:38:31.972,87192,18866,21647,72834,95627
2025-04-14 12:38:31.985,87190,18866,21646,72769,95565
2025-04-14 12:38:31.992,87204,18866,21647,72723,95531
2025-04-14 12:38:32.012,87216,18871,21646,72675,95479
2025-04-14 12:38:32.014,87222,18866,21643,72620,95433
2025-04-14 12:38:32.024,87204,18864,21643,72560,95392
2025-04-14 12:38:32.033,87210,18867,21643,72512,95333
2025-04-14 12:38:32.045,87218,18868,21642,72463,95292
2025-04-14 12:38:32.052,87218,18864,21644,72431,95246
2025-04-14 12:38:32.075,87217,18870,21644,72407,95235
2025-04-14 12:38:32.077,87223,18872,21644,72364,95201
2025-04-14 12:38:32.085,87217,18870,21649,72322,95178
2025-04-14 12:38:32.093,87216,18875,21644,72287,95146
2025-04-14 12:38:32.104,87215,18876,21649,72255,95117
2025-04-14 12:38:32.113,87225,18875,21651,72231,95094
2025-04-14 12:38:32.125,87214,18878,21652,72200,95082
2025-04-14 12:38:32.142,87224,18885,21658,72167,95054
2025-04-14 12:38:32.145,87225,18887,21662,72146,95042
2025-04-14 12:38:32.153,87233,18890,21664,72134,95019
2025-04-14 12:38:32.164,87229,18893,21669,72121,95009
2025-04-14 12:38:32.173,87237,18903,21675,72107,94998
2025-04-14 12:38:32.184,87230,18904,21681,72085,94996
2025-04-14 12:38:32.205,87234,18908,21682,72070,94985
2025-04-14 12:38:32.206,87212,18912,21691,72057,94967
2025-04-14 12:38:32.217,87227,18909,21688,72055,94965
2025-04-14 12:38:32.224,87222,18907,21688,72036,94940
2025-04-14 12:38:32.237,87227,18894,21681,72027,94938
2025-04-14 12:38:32.244,87216,18882,21670,72001,94923
2025-04-14 12:38:32.268,87210,18869,21654,71984,94899
2025-04-14 12:38:32.269,87204,18852,21647,71960,94881
2025-04-14 12:38:32.276,87205,18836,21632,71934,94862
2025-04-14 12:38:32.285,87196,18809,21619,71920,94836
2025-04-14 12:38:32.297,87191,18796,21599,71894,94805
2025-04-14 12:38:32.304,87184,18779,21593,71890,94806
2025-04-14 12:38:32.317,87180,18768,21577,71877,94795
2025-04-14 12:38:32.332,87193,18760,21576,71861,94760
2025-04-14 12:38:32.336,87192,18750,21569,71874,94762
2025-04-14 12:38:32.345,87190,18749,21565,71868,94775
2025-04-14 12:38:32.357,87206,18743,21564,71858,94756
2025-04-14 12:38:32.364,87210,18746,21562,71853,94766
2025-04-14 12:38:32.376,87225,18751,21569,71866,94771
2025-04-14 12:38:32.397,87236,18750,21576,71866,94786
2025-04-14 12:38:32.398,87241,18758,21576,71875,94787
2025-04-14 12:38:32.406,87261,18770,21585,71880,94796
2025-04-14 12:38:32.416,87257,18783,21589,71877,94806
2025-04-14 12:38:32.425,87258,18792,21603,71888,94813
2025-04-14 12:38:32.436,87272,18805,21612,71879,94823
2025-04-14 12:38:32.461,87261,18813,21622,71886,94843
2025-04-14 12:38:32.462,87260,18825,21623,71888,94851
2025-04-14 12:38:32.469,87264,18834,21637,71901,94862
2025-04-14 12:38:32.477,87240,18835,21644,71918,94865
2025-04-14 12:38:32.489,87224,18842,21650,71940,94900
2025-04-14 12:38:32.496,87206,18855,21662,71964,94928
2025-04-14 12:38:32.509,87180,18854,21667,72012,94946
2025-04-14 12:38:32.524,87157,18862,21670,72048,94975
2025-04-14 12:38:32.529,87113,18865,21681,72111,95025
2025-04-14 12:38:32.536,87079,18869,21682,72185,95097
2025-04-14 12:38:32.549,87017,18874,21691,72257,95144
2025-04-14 12:38:32.557,86972,18876,21700,72343,95218
2025-04-14 12:38:32.569,86928,18876,21706,72429,95286
2025-04-14 12:38:32.586,86875,18887,21710,72536,95361
2025-04-14 12:38:32.588,86837,18887,21721,72642,95460
2025-04-14 12:38:32.596,86789,18892,21729,72734,95542
2025-04-14 12:38:32.608,86752,18891,21738,72842,95645
2025-04-14 12:38:32.617,86708,18900,21742,72949,95725
2025-04-14 12:38:32.628,86692,18909,21752,73045,95816
2025-04-14 12:38:32.649,86654,18911,21761,73142,95920
2025-04-14 12:38:32.651,86636,18916,21774,73229,95998
2025-04-14 12:38:32.661,86608,18924,21778,73312,96082
2025-04-14 12:38:32.662,86608,18924,21778,73312,96082
2025-04-14 12:38:32.669,86584,18937,21796,73476,96220
2025-04-14 12:38:32.677,86572,18939,21803,73539,96297
2025-04-14 12:38:32.688,86571,18945,21804,73582,96351
2025-04-14 12:38:32.714,86574,18945,21811,73605,96373
2025-04-14 12:38:32.715,86578,18947,21806,73611,96396
2025-04-14 12:38:32.721,86593,18938,21804,73590,96387
2025-04-14 12:38:32.728,86621,18933,21798,73545,96356
2025-04-14 12:38:32.740,86646,18925,21788,73475,96306
2025-04-14 12:38:32.749,86683,18912,21772,73391,96239
2025-04-14 12:38:32.760,86712,18900,21755,73287,96141
2025-04-14 12:38:32.777,86746,18888,21745,73201,96051
2025-04-14 12:38:32.780,86767,18878,21735,73097,95945
2025-04-14 12:38:32.789,86798,18867,21719,72996,95840
2025-04-14 12:38:32.801,86834,18859,21710,72899,95751
2025-04-14 12:38:32.808,86865,18855,21698,72813,95646
2025-04-14 12:38:32.820,86887,18848,21689,72733,95558
2025-04-14 12:38:32.841,86917,18840,21681,72659,95490
2025-04-14 12:38:32.842,86943,18847,21675,72588,95418
2025-04-14 12:38:32.849,86970,18843,21672,72537,95363
2025-04-14 12:38:32.860,87006,18842,21673,72505,95322
2025-04-14 12:38:32.868,87015,18849,21672,72479,95285
2025-04-14 12:38:32.880,87039,18856,21682,72456,95268
2025-04-14 12:38:32.889,87042,18861,21685,72439,95267
2025-04-14 12:38:32.906,87049,18866,21686,72438,95248
2025-04-14 12:38:32.908,87060,18872,21693,72426,95256
2025-04-14 12:38:32.920,87049,18876,21697,72412,95241
2025-04-14 12:38:32.928,87038,18887,21704,72415,95221
2025-04-14 12:38:32.941,87030,18892,21709,72401,95233
2025-04-14 12:38:32.948,87025,18896,21713,72387,95234
2025-04-14 12:38:32.972,87019,18896,21714,72398,95230
2025-04-14 12:38:32.974,86993,18896,21709,72414,95241
2025-04-14 12:38:32.981,86965,18887,21707,72423,95236
2025-04-14 12:38:32.993,86946,18875,21703,72455,95250
2025-04-14 12:38:33.000,86902,18863,21700,72499,95276
2025-04-14 12:38:33.012,86865,18856,21697,72568,95317
2025-04-14 12:38:33.021,86816,18847,21697,72645,95359
2025-04-14 12:38:33.037,86773,18837,21693,72741,95440
2025-04-14 12:38:33.041,86720,18833,21688,72832,95527
2025-04-14 12:38:33.053,86680,18826,21696,72931,95610
2025-04-14 12:38:33.061,86647,18826,21698,73047,95702
2025-04-14 12:38:33.072,86600,18820,21702,73130,95780
2025-04-14 12:38:33.080,86582,18823,21706,73220,95871
2025-04-14 12:38:33.103,86545,18820,21707,73299,95956
2025-04-14 12:38:33.104,86512,18823,21713,73380,96027
2025-04-14 12:38:33.113,86478,18827,21714,73446,96109
2025-04-14 12:38:33.121,86457,18827,21721,73515,96163
2025-04-14 12:38:33.133,86443,18831,21727,73578,96225
2025-04-14 12:38:33.140,86416,18840,21734,73644,96281
2025-04-14 12:38:33.169,86414,18847,21741,73682,96317
2025-04-14 12:38:33.171,86400,18846,21747,73725,96373
2025-04-14 12:38:33.172,86400,18853,21748,73751,96397
2025-04-14 12:38:33.181,86407,18857,21754,73769,96428
2025-04-14 12:38:33.192,86405,18859,21755,73773,96446
2025-04-14 12:38:33.204,86411,18857,21755,73780,96453
2025-04-14 12:38:33.213,86430,18853,21754,73753,96416
2025-04-14 12:38:33.235,86447,18846,21747,73729,96398
2025-04-14 12:38:33.236,86458,18840,21738,73697,96378
2025-04-14 12:38:33.244,86470,18834,21735,73662,96346
2025-04-14 12:38:33.252,86480,18818,21725,73618,96302
2025-04-14 12:38:33.264,86487,18811,21710,73568,96244
2025-04-14 12:38:33.273,86491,18797,21696,73516,96214
2025-04-14 12:38:33.301,86518,18784,21686,73463,96157
2025-04-14 12:38:33.302,86520,18776,21674,73426,96105
2025-04-14 12:38:33.304,86530,18767,21668,73378,96039
2025-04-14 12:38:33.313,86538,18760,21652,73336,96010
2025-04-14 12:38:33.325,86551,18750,21648,73309,95970
2025-04-14 12:38:33.333,86564,18745,21639,73287,95944
2025-04-14 12:38:33.344,86578,18742,21633,73264,95913
2025-04-14 12:38:33.366,86592,18738,21632,73238,95899
2025-04-14 12:38:33.367,86603,18737,21628,73235,95880
2025-04-14 12:38:33.372,86613,18746,21627,73228,95876
2025-04-14 12:38:33.384,86625,18743,21628,73227,95876
2025-04-14 12:38:33.393,86629,18746,21633,73241,95878
2025-04-14 12:38:33.405,86627,18753,21633,73255,95887
2025-04-14 12:38:33.413,86613,18752,21639,73269,95902
2025-04-14 12:38:33.430,86590,18763,21645,73298,95917
2025-04-14 12:38:33.432,86573,18770,21649,73328,95934
2025-04-14 12:38:33.444,86558,18772,21650,73377,95973
2025-04-14 12:38:33.452,86528,18778,21662,73422,95995
2025-04-14 12:38:33.464,86493,18786,21667,73470,96044
2025-04-14 12:38:33.468,86493,18786,21667,73470,96044
2025-04-14 12:38:33.476,86436,18801,21683,73560,96128
2025-04-14 12:38:33.494,86420,18804,21688,73622,96166
2025-04-14 12:38:33.496,86424,18812,21698,73666,96231
2025-04-14 12:38:33.504,86425,18820,21709,73695,96275
2025-04-14 12:38:33.516,86419,18827,21714,73710,96313
2025-04-14 12:38:33.524,86418,18831,21707,73717,96321
2025-04-14 12:38:33.536,86414,18832,21713,73687,96325
2025-04-14 12:38:33.559,86404,18830,21707,73659,96294
2025-04-14 12:38:33.560,86395,18826,21703,73602,96261
2025-04-14 12:38:33.564,86389,18819,21690,73548,96190
2025-04-14 12:38:33.576,86378,18812,21683,73485,96149
2025-04-14 12:38:33.584,86368,18802,21675,73418,96088
2025-04-14 12:38:33.596,86369,18791,21668,73340,96016
2025-04-14 12:38:33.604,86388,18785,21657,73275,95951
2025-04-14 12:38:33.624,86401,18778,21644,73222,95874
2025-04-14 12:38:33.625,86425,18770,21640,73174,95830
2025-04-14 12:38:33.636,86450,18763,21635,73126,95780
2025-04-14 12:38:33.644,86480,18763,21626,73086,95729
2025-04-14 12:38:33.656,86507,18757,21622,73039,95697
2025-04-14 12:38:33.664,86532,18756,21619,73000,95670
2025-04-14 12:38:33.689,86563,18751,21614,72963,95637
2025-04-14 12:38:33.690,86600,18743,21606,72947,95603
2025-04-14 12:38:33.696,86622,18735,21597,72925,95579
2025-04-14 12:38:33.704,86638,18729,21587,72893,95560
2025-04-14 12:38:33.716,86639,18712,21578,72880,95547
2025-04-14 12:38:33.723,86640,18704,21570,72885,95536
2025-04-14 12:38:33.736,86656,18691,21561,72893,95531
2025-04-14 12:38:33.753,86648,18673,21547,72916,95543
2025-04-14 12:38:33.756,86659,18666,21537,72954,95568
2025-04-14 12:38:33.769,86693,18648,21532,73015,95611
2025-04-14 12:38:33.776,86755,18643,21527,73105,95689
2025-04-14 12:38:33.787,86842,18631,21519,73211,95785
2025-04-14 12:38:33.796,86946,18634,21521,73329,95895
2025-04-14 12:38:33.819,87038,18633,21522,73456,96010
2025-04-14 12:38:33.820,87132,18635,21531,73576,96152
2025-04-14 12:38:33.829,87221,18647,21539,73674,96259
2025-04-14 12:38:33.836,87306,18656,21540,73762,96353
2025-04-14 12:38:33.848,87389,18667,21548,73826,96448
2025-04-14 12:38:33.857,87463,18672,21550,73849,96501
2025-04-14 12:38:33.882,87552,18681,21559,73847,96530
2025-04-14 12:38:33.883,87647,18682,21552,73808,96528
2025-04-14 12:38:33.887,87715,18690,21556,73756,96502
2025-04-14 12:38:33.896,87785,18691,21552,73666,96426
2025-04-14 12:38:33.908,87864,18694,21544,73553,96352
2025-04-14 12:38:33.916,87895,18687,21535,73405,96245
2025-04-14 12:38:33.929,87938,18684,21525,73270,96104
2025-04-14 12:38:33.945,87978,18667,21513,73123,95965
2025-04-14 12:38:33.948,88024,18659,21499,72971,95826
2025-04-14 12:38:33.956,88051,18650,21486,72830,95684
2025-04-14 12:38:33.968,88063,18643,21475,72716,95557
2025-04-14 12:38:33.977,88075,18650,21474,72686,95457
2025-04-14 12:38:33.988,88099,18658,21490,72712,95447
2025-04-14 12:38:34.011,88114,18661,21488,72685,95488
2025-04-14 12:38:34.012,88109,18673,21496,72710,95473
2025-04-14 12:38:34.021,88145,18677,21498,72737,95516
2025-04-14 12:38:34.028,88158,18678,21498,72759,95546
2025-04-14 12:38:34.040,88167,18690,21501,72760,95582
2025-04-14 12:38:34.048,88184,18691,21511,72771,95598
2025-04-14 12:38:34.059,88187,18698,21515,72774,95616
2025-04-14 12:38:34.074,88201,18706,21517,72777,95630
2025-04-14 12:38:34.080,88200,18719,21519,72802,95643
2025-04-14 12:38:34.087,88201,18720,21519,72795,95642
2025-04-14 12:38:34.101,88208,18730,21525,72813,95660
2025-04-14 12:38:34.108,88199,18737,21530,72802,95664
2025-04-14 12:38:34.120,88201,18741,21534,72800,95649
2025-04-14 12:38:34.137,88205,18756,21544,72814,95645
2025-04-14 12:38:34.140,88205,18766,21548,72813,95652
2025-04-14 12:38:34.149,88188,18769,21552,72791,95641
2025-04-14 12:38:34.160,88182,18777,21557,72785,95627
2025-04-14 12:38:34.167,88174,18786,21564,72773,95605
2025-04-14 12:38:34.180,88159,18798,21574,72774,95602
2025-04-14 12:38:34.202,88127,18806,21587,72801,95614
2025-04-14 12:38:34.203,88096,18826,21600,72845,95638
2025-04-14 12:38:34.208,88057,18841,21617,72911,95688
2025-04-14 12:38:34.220,87998,18859,21636,72989,95751
2025-04-14 12:38:34.228,87940,18879,21658,73085,95833
2025-04-14 12:38:34.239,87872,18896,21679,73189,95931
2025-04-14 12:38:34.265,87789,18912,21692,73300,96030
2025-04-14 12:38:34.266,87709,18928,21714,73415,96138
2025-04-14 12:38:34.272,87624,18940,21725,73535,96257
2025-04-14 12:38:34.275,87624,18940,21725,73535,96257
2025-04-14 12:38:34.280,87456,18959,21754,73732,96451
2025-04-14 12:38:34.292,87383,18969,21763,73838,96520
2025-04-14 12:38:34.300,87383,18969,21763,73838,96520
2025-04-14 12:38:34.312,87312,18971,21774,73896,96602
2025-04-14 12:38:34.327,87272,18977,21775,73965,96671
2025-04-14 12:38:34.332,87212,18984,21786,74044,96726
2025-04-14 12:38:34.339,87186,18979,21783,74088,96776
2025-04-14 12:38:34.352,87147,18981,21791,74152,96813
2025-04-14 12:38:34.360,87098,18984,21801,74222,96873
2025-04-14 12:38:34.372,87077,18985,21802,74280,96941
2025-04-14 12:38:34.391,87051,18988,21810,74338,96988
2025-04-14 12:38:34.392,87039,18988,21808,74362,97032
2025-04-14 12:38:34.400,87038,18985,21810,74370,97057
2025-04-14 12:38:34.412,87038,18986,21810,74359,97050
2025-04-14 12:38:34.420,87045,18976,21797,74317,97046
2025-04-14 12:38:34.432,87051,18960,21791,74253,96990
2025-04-14 12:38:34.440,87074,18946,21779,74164,96908
2025-04-14 12:38:34.455,87098,18925,21755,74072,96822
2025-04-14 12:38:34.459,87094,18901,21735,73968,96732
2025-04-14 12:38:34.472,87110,18870,21709,73874,96616
2025-04-14 12:38:34.476,87110,18870,21709,73874,96616
2025-04-14 12:38:34.479,87124,18817,21658,73704,96427
2025-04-14 12:38:34.492,87118,18791,21639,73626,96351
2025-04-14 12:38:34.503,87126,18768,21611,73571,96277
2025-04-14 12:38:34.518,87126,18745,21592,73522,96220
2025-04-14 12:38:34.524,87155,18733,21570,73489,96176
2025-04-14 12:38:34.532,87177,18718,21557,73449,96137
2025-04-14 12:38:34.544,87207,18704,21543,73411,96124
2025-04-14 12:38:34.551,87226,18700,21533,73360,96078
2025-04-14 12:38:34.564,87260,18685,21520,73333,96044
2025-04-14 12:38:34.582,87279,18684,21512,73278,95998
2025-04-14 12:38:34.584,87294,18679,21506,73222,95948
2025-04-14 12:38:34.592,87312,18674,21497,73140,95887
2025-04-14 12:38:34.603,87333,18666,21484,73065,95825
2025-04-14 12:38:34.611,87358,18664,21478,72978,95730
2025-04-14 12:38:34.624,87387,18656,21467,72879,95646
2025-04-14 12:38:34.632,87392,18652,21453,72790,95562
2025-04-14 12:38:34.648,87399,18655,21447,72685,95475
2025-04-14 12:38:34.652,87413,18651,21442,72601,95364
2025-04-14 12:38:34.664,87407,18646,21438,72515,95288
2025-04-14 12:38:34.671,87423,18647,21430,72448,95206
2025-04-14 12:38:34.684,87452,18651,21429,72398,95147
2025-04-14 12:38:34.692,87470,18654,21432,72364,95104
2025-04-14 12:38:34.713,87495,18660,21434,72358,95072
2025-04-14 12:38:34.715,87517,18663,21436,72343,95083
2025-04-14 12:38:34.725,87539,18668,21438,72345,95076
2025-04-14 12:38:34.732,87563,18678,21444,72348,95106
2025-04-14 12:38:34.744,87581,18687,21452,72364,95126
2025-04-14 12:38:34.752,87582,18696,21453,72379,95141
2025-04-14 12:38:34.779,87587,18700,21458,72383,95176
2025-04-14 12:38:34.780,87595,18701,21463,72410,95197
2025-04-14 12:38:34.784,87586,18707,21465,72423,95211
2025-04-14 12:38:34.795,87576,18719,21464,72450,95232
2025-04-14 12:38:34.804,87555,18726,21472,72512,95259
2025-04-14 12:38:34.816,87544,18734,21485,72573,95303
2025-04-14 12:38:34.823,87528,18750,21498,72663,95382
2025-04-14 12:38:34.842,87499,18762,21515,72786,95462
2025-04-14 12:38:34.844,87495,18782,21535,72910,95574
2025-04-14 12:38:34.856,87465,18795,21550,73011,95679
2025-04-14 12:38:34.864,87416,18803,21554,73066,95777
2025-04-14 12:38:34.876,87330,18805,21552,73108,95823
2025-04-14 12:38:34.885,87219,18807,21556,73121,95827
2025-04-14 12:38:34.905,87080,18802,21550,73084,95813
2025-04-14 12:38:34.907,86964,18792,21551,73019,95762
2025-04-14 12:38:34.916,86862,18776,21539,72934,95672
2025-04-14 12:38:34.924,86789,18748,21516,72806,95554
2025-04-14 12:38:34.935,86719,18718,21486,72659,95419
2025-04-14 12:38:34.944,86671,18686,21454,72533,95284
2025-04-14 12:38:34.970,86648,18661,21432,72410,95148
2025-04-14 12:38:34.972,86627,18647,21413,72323,95027
2025-04-14 12:38:34.975,86636,18642,21407,72285,94944
2025-04-14 12:38:34.984,86730,18651,21415,72317,94916
2025-04-14 12:38:34.996,86789,18667,21422,72336,94969
2025-04-14 12:38:35.008,86813,18670,21430,72360,95020
2025-04-14 12:38:35.016,86860,18669,21427,72374,95076
2025-04-14 12:38:35.036,86885,18664,21424,72338,95097
2025-04-14 12:38:35.038,86884,18668,21425,72320,95085
2025-04-14 12:38:35.047,86878,18672,21431,72315,95076
2025-04-14 12:38:35.056,86859,18684,21436,72323,95060
2025-04-14 12:38:35.068,86884,18705,21458,72371,95046
2025-04-14 12:38:35.076,87024,18738,21481,72499,95114
2025-04-14 12:38:35.101,87143,18765,21515,72610,95248
2025-04-14 12:38:35.103,87223,18791,21541,72715,95340
2025-04-14 12:38:35.107,87330,18816,21561,72858,95441
2025-04-14 12:38:35.116,87460,18838,21583,72977,95545
2025-04-14 12:38:35.127,87596,18858,21598,73101,95650
2025-04-14 12:38:35.135,87728,18876,21619,73199,95729
2025-04-14 12:38:35.148,87859,18899,21639,73287,95835
2025-04-14 12:38:35.170,88010,18913,21647,73358,95916
2025-04-14 12:38:35.172,88128,18932,21665,73419,95990
2025-04-14 12:38:35.175,88229,18945,21675,73472,96051
2025-04-14 12:38:35.188,88281,18962,21685,73525,96106
2025-04-14 12:38:35.196,88318,18963,21688,73565,96149
2025-04-14 12:38:35.208,88351,18965,21686,73631,96186
2025-04-14 12:38:35.215,88399,18961,21681,73694,96224
2025-04-14 12:38:35.234,88447,18959,21675,73768,96279
2025-04-14 12:38:35.235,88498,18956,21666,73827,96347
2025-04-14 12:38:35.248,88540,18944,21656,73861,96380
2025-04-14 12:38:35.260,88557,18935,21642,73873,96395
2025-04-14 12:38:35.267,88562,18919,21623,73862,96395
2025-04-14 12:38:35.280,88541,18902,21602,73845,96376
2025-04-14 12:38:35.296,88541,18902,21602,73845,96376
2025-04-14 12:38:35.298,88463,18868,21570,73801,96303
2025-04-14 12:38:35.299,88434,18855,21555,73791,96275
2025-04-14 12:38:35.307,88410,18845,21542,73766,96259
2025-04-14 12:38:35.320,88381,18840,21534,73746,96243
2025-04-14 12:38:35.327,88365,18836,21526,73732,96241
2025-04-14 12:38:35.339,88342,18833,21524,73725,96222
2025-04-14 12:38:35.360,88325,18840,21523,73735,96233
2025-04-14 12:38:35.361,88320,18845,21536,73762,96254
2025-04-14 12:38:35.367,88323,18856,21536,73784,96282
2025-04-14 12:38:35.380,88330,18867,21551,73822,96333
2025-04-14 12:38:35.387,88335,18878,21557,73847,96380
2025-04-14 12:38:35.400,88341,18892,21569,73859,96404
2025-04-14 12:38:35.407,88349,18896,21570,73853,96432
2025-04-14 12:38:35.423,88332,18908,21574,73828,96445
2025-04-14 12:38:35.427,88310,18912,21574,73784,96416
2025-04-14 12:38:35.439,88292,18914,21575,73739,96375
2025-04-14 12:38:35.447,88283,18917,21573,73696,96319
2025-04-14 12:38:35.459,88254,18923,21575,73671,96286
2025-04-14 12:38:35.467,88217,18924,21579,73630,96252
2025-04-14 12:38:35.486,88171,18921,21571,73605,96224
2025-04-14 12:38:35.487,88132,18919,21574,73593,96207
2025-04-14 12:38:35.500,88098,18916,21573,73604,96198
2025-04-14 12:38:35.511,88061,18915,21568,73601,96189
2025-04-14 12:38:35.520,88010,18903,21559,73600,96189
2025-04-14 12:38:35.531,87962,18890,21543,73534,96166
2025-04-14 12:38:35.551,87912,18868,21522,73467,96116
2025-04-14 12:38:35.552,87862,18842,21501,73360,96018
2025-04-14 12:38:35.560,87794,18826,21481,73247,95917
2025-04-14 12:38:35.572,87718,18811,21472,73156,95790
2025-04-14 12:38:35.580,87643,18799,21457,73090,95674
2025-04-14 12:38:35.592,87611,18790,21447,73052,95620
2025-04-14 12:38:35.599,87586,18775,21437,73031,95586
2025-04-14 12:38:35.617,87609,18764,21427,73029,95579
2025-04-14 12:38:35.620,87654,18754,21416,73044,95587
2025-04-14 12:38:35.631,87708,18743,21413,73074,95623
2025-04-14 12:38:35.639,87767,18739,21407,73109,95664
2025-04-14 12:38:35.651,87806,18742,21408,73145,95721
2025-04-14 12:38:35.660,87845,18744,21413,73191,95780
2025-04-14 12:38:35.680,87878,18752,21419,73227,95847
2025-04-14 12:38:35.681,87901,18765,21432,73273,95900
2025-04-14 12:38:35.692,87916,18781,21444,73311,95969
2025-04-14 12:38:35.700,87934,18797,21463,73360,96026
2025-04-14 12:38:35.711,87963,18810,21472,73409,96081
2025-04-14 12:38:35.720,87984,18830,21484,73466,96129
2025-04-14 12:38:35.743,88015,18848,21507,73533,96195
2025-04-14 12:38:35.744,88039,18871,21517,73580,96247
2025-04-14 12:38:35.752,88071,18893,21533,73634,96300
2025-04-14 12:38:35.764,88115,18907,21545,73673,96339
2025-04-14 12:38:35.771,88144,18932,21561,73706,96395
2025-04-14 12:38:35.784,88165,18951,21570,73731,96429
2025-04-14 12:38:35.791,88184,18961,21585,73738,96442
2025-04-14 12:38:35.806,88180,18972,21593,73724,96442
2025-04-14 12:38:35.811,88169,18982,21594,73719,96429
2025-04-14 12:38:35.823,88139,18986,21601,73691,96408
2025-04-14 12:38:35.831,88087,18987,21596,73652,96382
2025-04-14 12:38:35.844,88021,18984,21584,73605,96332
2025-04-14 12:38:35.851,87938,18970,21574,73543,96269
2025-04-14 12:38:35.869,87848,18958,21565,73467,96205
2025-04-14 12:38:35.871,87730,18933,21545,73390,96124
2025-04-14 12:38:35.884,87625,18909,21516,73304,96022
2025-04-14 12:38:35.891,87528,18876,21491,73224,95921
2025-04-14 12:38:35.903,87426,18842,21457,73140,95817
2025-04-14 12:38:35.910,87367,18804,21425,73070,95732
2025-04-14 12:38:35.932,87322,18771,21397,73004,95661
2025-04-14 12:38:35.933,87311,18740,21370,72963,95597
2025-04-14 12:38:35.943,87314,18713,21346,72946,95581
2025-04-14 12:38:35.951,87302,18688,21322,72919,95564
2025-04-14 12:38:35.963,87312,18663,21300,72910,95568
2025-04-14 12:38:35.971,87299,18644,21281,72891,95575
2025-04-14 12:38:35.996,87299,18621,21264,72877,95564
2025-04-14 12:38:35.998,87309,18609,21246,72864,95554
2025-04-14 12:38:36.002,87315,18595,21236,72859,95544
2025-04-14 12:38:36.015,87338,18584,21225,72880,95551
2025-04-14 12:38:36.023,87361,18581,21216,72904,95561
2025-04-14 12:38:36.036,87382,18577,21217,72936,95574
2025-04-14 12:38:36.043,87401,18580,21215,72977,95623
2025-04-14 12:38:36.060,87413,18586,21220,73015,95637
2025-04-14 12:38:36.063,87445,18597,21224,73052,95675
2025-04-14 12:38:36.075,87470,18603,21234,73097,95712
2025-04-14 12:38:36.087,87484,18623,21244,73137,95753
2025-04-14 12:38:36.088,87484,18623,21244,73137,95753
2025-04-14 12:38:36.095,87536,18651,21262,73215,95820
2025-04-14 12:38:36.103,87564,18668,21270,73241,95872
2025-04-14 12:38:36.123,87599,18680,21285,73272,95890
2025-04-14 12:38:36.125,87621,18690,21295,73285,95917
2025-04-14 12:38:36.135,87631,18702,21292,73306,95940
2025-04-14 12:38:36.143,87648,18713,21297,73302,95951
2025-04-14 12:38:36.155,87661,18715,21297,73303,95959
2025-04-14 12:38:36.163,87664,18720,21303,73302,95965
2025-04-14 12:38:36.186,87655,18722,21298,73297,95953
2025-04-14 12:38:36.187,87649,18719,21294,73276,95940
2025-04-14 12:38:36.195,87636,18719,21285,73255,95932
2025-04-14 12:38:36.202,87606,18714,21281,73236,95899
2025-04-14 12:38:36.216,87581,18709,21276,73202,95864
2025-04-14 12:38:36.223,87530,18700,21266,73171,95848
2025-04-14 12:38:36.234,87504,18696,21257,73151,95815
2025-04-14 12:38:36.250,87479,18684,21247,73122,95774
2025-04-14 12:38:36.255,87452,18674,21235,73073,95744
2025-04-14 12:38:36.267,87405,18666,21231,73042,95704
2025-04-14 12:38:36.275,87390,18658,21217,73022,95673
2025-04-14 12:38:36.287,87362,18650,21213,73002,95655
2025-04-14 12:38:36.295,87357,18643,21206,72989,95627
2025-04-14 12:38:36.313,87349,18636,21205,72978,95612
2025-04-14 12:38:36.315,87318,18638,21202,72970,95604
2025-04-14 12:38:36.327,87307,18640,21201,72972,95598
2025-04-14 12:38:36.334,87314,18643,21206,72974,95616
2025-04-14 12:38:36.348,87311,18646,21210,72972,95608
2025-04-14 12:38:36.355,87292,18644,21208,72983,95607
2025-04-14 12:38:36.376,87297,18649,21212,72999,95645
2025-04-14 12:38:36.377,87291,18659,21216,73003,95640
2025-04-14 12:38:36.387,87293,18659,21221,73014,95660
2025-04-14 12:38:36.394,87285,18665,21225,73023,95675
2025-04-14 12:38:36.407,87284,18674,21233,73027,95701
2025-04-14 12:38:36.415,87278,18682,21235,73028,95693
2025-04-14 12:38:36.439,87268,18679,21237,73027,95701
2025-04-14 12:38:36.440,87262,18688,21238,73022,95696
2025-04-14 12:38:36.447,87237,18693,21243,73010,95692
2025-04-14 12:38:36.455,87221,18695,21242,73009,95686
2025-04-14 12:38:36.467,87198,18697,21245,73000,95692
2025-04-14 12:38:36.475,87165,18703,21243,72969,95678
2025-04-14 12:38:36.487,87132,18698,21237,72963,95635
2025-04-14 12:38:36.504,87090,18696,21232,72918,95612
2025-04-14 12:38:36.507,87046,18689,21231,72886,95578
2025-04-14 12:38:36.520,86992,18684,21226,72856,95521
2025-04-14 12:38:36.527,86941,18668,21218,72807,95482
2025-04-14 12:38:36.538,86895,18661,21208,72757,95444
2025-04-14 12:38:36.548,86847,18648,21202,72722,95382
2025-04-14 12:38:36.567,86819,18644,21195,72691,95329
2025-04-14 12:38:36.568,86813,18635,21184,72681,95303
2025-04-14 12:38:36.579,86818,18625,21177,72674,95295
2025-04-14 12:38:36.587,86849,18610,21162,72680,95291
2025-04-14 12:38:36.599,86869,18600,21156,72711,95336
2025-04-14 12:38:36.607,86900,18585,21149,72743,95367
2025-04-14 12:38:36.631,86929,18569,21134,72769,95410
2025-04-14 12:38:36.633,86941,18560,21119,72790,95450
2025-04-14 12:38:36.639,86953,18547,21106,72801,95472
2025-04-14 12:38:36.648,86967,18532,21090,72808,95498
2025-04-14 12:38:36.660,86964,18522,21079,72804,95509
2025-04-14 12:38:36.667,86989,18514,21067,72801,95508
2025-04-14 12:38:36.679,86986,18503,21052,72814,95512
2025-04-14 12:38:36.694,87006,18501,21046,72790,95505
2025-04-14 12:38:36.699,87007,18501,21037,72797,95512
2025-04-14 12:38:36.707,87026,18497,21029,72794,95513
2025-04-14 12:38:36.719,87030,18501,21031,72799,95512
2025-04-14 12:38:36.727,87059,18500,21034,72813,95522
2025-04-14 12:38:36.739,87083,18514,21033,72846,95530
2025-04-14 12:38:36.757,87108,18526,21042,72875,95563
2025-04-14 12:38:36.759,87153,18540,21050,72932,95618
2025-04-14 12:38:36.771,87181,18558,21070,72970,95661
2025-04-14 12:38:36.779,87213,18588,21086,73041,95716
2025-04-14 12:38:36.791,87243,18606,21112,73089,95766
2025-04-14 12:38:36.799,87272,18631,21128,73140,95821
2025-04-14 12:38:36.822,87306,18653,21148,73189,95867
2025-04-14 12:38:36.823,87315,18673,21167,73234,95908
2025-04-14 12:38:36.831,87337,18693,21176,73243,95941
2025-04-14 12:38:36.839,87329,18702,21186,73245,95954
2025-04-14 12:38:36.851,87323,18702,21180,73241,95952
2025-04-14 12:38:36.858,87324,18699,21177,73210,95930
2025-04-14 12:38:36.886,87318,18693,21167,73180,95884
2025-04-14 12:38:36.887,87331,18673,21153,73146,95848
2025-04-14 12:38:36.891,87368,18653,21130,73129,95804
2025-04-14 12:38:36.894,87368,18653,21130,73129,95804
2025-04-14 12:38:36.899,87475,18607,21096,73129,95742
2025-04-14 12:38:36.910,87568,18595,21081,73149,95741
2025-04-14 12:38:36.919,87657,18586,21068,73204,95773
2025-04-14 12:38:36.931,87764,18585,21069,73266,95807
2025-04-14 12:38:36.949,87864,18583,21071,73323,95899
2025-04-14 12:38:36.951,87942,18586,21068,73382,95962
2025-04-14 12:38:36.959,88018,18597,21076,73454,96053
2025-04-14 12:38:36.971,88086,18613,21093,73530,96136
2025-04-14 12:38:36.979,88135,18631,21106,73576,96205
2025-04-14 12:38:36.991,88171,18647,21115,73640,96272
2025-04-14 12:38:37.012,88210,18666,21131,73681,96323
2025-04-14 12:38:37.013,88219,18685,21145,73716,96362
2025-04-14 12:38:37.022,88232,18706,21157,73735,96396
2025-04-14 12:38:37.030,88215,18722,21174,73751,96425
2025-04-14 12:38:37.043,88212,18740,21179,73767,96438
2025-04-14 12:38:37.050,88215,18756,21193,73771,96458
2025-04-14 12:38:37.076,88215,18768,21201,73775,96447
2025-04-14 12:38:37.078,88227,18780,21208,73780,96457
2025-04-14 12:38:37.082,88237,18791,21217,73767,96453
2025-04-14 12:38:37.091,88243,18801,21221,73750,96451
2025-04-14 12:38:37.102,88233,18809,21233,73727,96421
2025-04-14 12:38:37.111,88212,18813,21235,73698,96392
2025-04-14 12:38:37.123,88207,18817,21235,73669,96364
2025-04-14 12:38:37.140,88216,18819,21233,73642,96328
2025-04-14 12:38:37.143,88198,18823,21234,73624,96308
2025-04-14 12:38:37.150,88195,18824,21234,73595,96275
2025-04-14 12:38:37.163,88178,18825,21236,73576,96264
2025-04-14 12:38:37.171,88160,18829,21240,73556,96234
2025-04-14 12:38:37.182,88141,18831,21239,73534,96213
2025-04-14 12:38:37.204,88114,18833,21243,73507,96197
2025-04-14 12:38:37.205,88073,18841,21244,73480,96180
2025-04-14 12:38:37.212,88025,18837,21243,73450,96153
2025-04-14 12:38:37.223,87958,18837,21250,73407,96105
2025-04-14 12:38:37.230,87892,18834,21245,73358,96066
2025-04-14 12:38:37.243,87828,18834,21244,73311,96029
2025-04-14 12:38:37.251,87767,18825,21243,73270,96002
2025-04-14 12:38:37.267,87716,18821,21237,73239,95951
2025-04-14 12:38:37.276,87675,18815,21232,73208,95908
2025-04-14 12:38:37.283,87622,18802,21222,73170,95881
2025-04-14 12:38:37.295,87562,18789,21209,73137,95852
2025-04-14 12:38:37.303,87495,18768,21193,73099,95818
2025-04-14 12:38:37.314,87413,18755,21175,73040,95758
2025-04-14 12:38:37.331,87363,18731,21154,73006,95708
2025-04-14 12:38:37.335,87317,18715,21137,72970,95680
2025-04-14 12:38:37.342,87284,18701,21118,72944,95650
2025-04-14 12:38:37.354,87255,18690,21110,72922,95626
2025-04-14 12:38:37.363,87235,18677,21095,72912,95621
2025-04-14 12:38:37.374,87223,18672,21089,72910,95610
2025-04-14 12:38:37.394,87214,18661,21071,72890,95614
2025-04-14 12:38:37.396,87193,18645,21060,72870,95594
2025-04-14 12:38:37.403,87154,18638,21055,72869,95587
2025-04-14 12:38:37.415,87118,18636,21046,72849,95574
2025-04-14 12:38:37.423,87079,18629,21042,72833,95556
2025-04-14 12:38:37.434,87028,18627,21037,72812,95528
2025-04-14 12:38:37.443,86960,18621,21032,72765,95493
2025-04-14 12:38:37.458,86875,18610,21024,72706,95437
2025-04-14 12:38:37.463,86807,18599,21013,72633,95358
2025-04-14 12:38:37.475,86733,18588,20996,72578,95299
2025-04-14 12:38:37.487,86666,18581,20986,72521,95210
2025-04-14 12:38:37.494,86601,18565,20981,72473,95143
2025-04-14 12:38:37.507,86559,18545,20970,72441,95093
2025-04-14 12:38:37.523,86535,18536,20958,72405,95036
2025-04-14 12:38:37.527,86543,18521,20947,72372,94991
2025-04-14 12:38:37.535,86565,18509,20933,72365,94971
2025-04-14 12:38:37.546,86631,18502,20932,72361,94951
2025-04-14 12:38:37.555,86705,18500,20926,72386,94963
2025-04-14 12:38:37.567,86777,18500,20926,72428,95006
2025-04-14 12:38:37.587,86857,18500,20929,72469,95080
2025-04-14 12:38:37.589,86918,18512,20934,72525,95158
2025-04-14 12:38:37.594,86967,18521,20949,72575,95221
2025-04-14 12:38:37.606,87003,18550,20966,72646,95317
2025-04-14 12:38:37.614,87027,18570,20990,72709,95393
2025-04-14 12:38:37.627,87040,18598,21005,72787,95475
2025-04-14 12:38:37.634,87048,18623,21030,72871,95562
2025-04-14 12:38:37.651,87058,18644,21048,72964,95644
2025-04-14 12:38:37.655,87062,18673,21072,73046,95741
2025-04-14 12:38:37.666,87059,18691,21089,73119,95820
2025-04-14 12:38:37.674,87046,18714,21101,73162,95875
2025-04-14 12:38:37.688,87036,18730,21110,73188,95920
2025-04-14 12:38:37.699,87010,18736,21115,73181,95916
2025-04-14 12:38:37.714,87010,18736,21115,73181,95916
2025-04-14 12:38:37.715,86947,18741,21113,73123,95863
2025-04-14 12:38:37.716,86926,18735,21106,73093,95824
2025-04-14 12:38:37.727,86894,18723,21099,73040,95784
2025-04-14 12:38:37.735,86875,18720,21085,73012,95738
2025-04-14 12:38:37.747,86848,18707,21073,72962,95688
2025-04-14 12:38:37.754,86816,18693,21063,72938,95651
2025-04-14 12:38:37.777,86788,18679,21046,72908,95596
2025-04-14 12:38:37.779,86775,18667,21036,72868,95554
2025-04-14 12:38:37.786,86748,18655,21029,72834,95525
2025-04-14 12:38:37.799,86760,18647,21019,72832,95507
2025-04-14 12:38:37.806,86772,18640,21010,72823,95462
2025-04-14 12:38:37.819,86774,18630,21004,72832,95471
2025-04-14 12:38:37.841,86793,18628,21004,72836,95482
2025-04-14 12:38:37.842,86804,18625,21001,72871,95514
2025-04-14 12:38:37.846,86822,18634,21007,72895,95554
2025-04-14 12:38:37.858,86825,18634,21009,72918,95586
2025-04-14 12:38:37.866,86827,18641,21021,72960,95629
2025-04-14 12:38:37.878,86840,18649,21023,72984,95672
2025-04-14 12:38:37.887,86836,18667,21029,73014,95703
2025-04-14 12:38:37.905,86821,18679,21035,73050,95730
2025-04-14 12:38:37.907,86813,18682,21048,73075,95766
2025-04-14 12:38:37.918,86809,18693,21052,73084,95778
2025-04-14 12:38:37.926,86821,18701,21057,73100,95798
2025-04-14 12:38:37.938,86829,18708,21058,73106,95800
2025-04-14 12:38:37.947,86843,18708,21057,73101,95793
2025-04-14 12:38:37.968,86850,18708,21048,73097,95779
2025-04-14 12:38:37.969,86838,18696,21036,73079,95752
2025-04-14 12:38:37.978,86829,18686,21020,73045,95738
2025-04-14 12:38:37.987,86811,18663,21005,73025,95692
2025-04-14 12:38:37.999,86791,18640,20978,72989,95648
2025-04-14 12:38:38.006,86757,18623,20955,72946,95600
2025-04-14 12:38:38.032,86732,18593,20927,72909,95537
2025-04-14 12:38:38.033,86705,18567,20897,72865,95486
2025-04-14 12:38:38.039,86683,18539,20871,72813,95428
2025-04-14 12:38:38.051,86670,18514,20848,72766,95384
2025-04-14 12:38:38.058,86664,18492,20820,72744,95363
2025-04-14 12:38:38.070,86654,18473,20801,72727,95344
2025-04-14 12:38:38.079,86646,18463,20791,72711,95317
2025-04-14 12:38:38.095,86642,18451,20771,72702,95306
2025-04-14 12:38:38.098,86645,18446,20765,72704,95295
2025-04-14 12:38:38.110,86649,18434,20758,72717,95297
2025-04-14 12:38:38.118,86660,18436,20756,72724,95313
2025-04-14 12:38:38.130,86656,18439,20759,72732,95319
2025-04-14 12:38:38.139,86678,18442,20764,72746,95341
2025-04-14 12:38:38.159,86681,18454,20761,72775,95360
2025-04-14 12:38:38.160,86683,18462,20770,72806,95384
2025-04-14 12:38:38.171,86677,18464,20782,72827,95399
2025-04-14 12:38:38.179,86687,18479,20784,72843,95440
2025-04-14 12:38:38.191,86681,18491,20790,72861,95453
2025-04-14 12:38:38.198,86680,18501,20798,72872,95471
2025-04-14 12:38:38.222,86684,18509,20804,72891,95479
2025-04-14 12:38:38.224,86677,18518,20812,72899,95502
2025-04-14 12:38:38.230,86690,18527,20815,72908,95506
2025-04-14 12:38:38.239,86702,18531,20822,72921,95535
2025-04-14 12:38:38.251,86725,18542,20823,72951,95541
2025-04-14 12:38:38.262,86734,18544,20829,72953,95555
2025-04-14 12:38:38.270,86755,18550,20830,72971,95588
2025-04-14 12:38:38.286,86763,18557,20833,72981,95590
2025-04-14 12:38:38.290,86763,18572,20837,72989,95610
2025-04-14 12:38:38.302,86753,18572,20841,72974,95629
2025-04-14 12:38:38.310,86723,18572,20839,72946,95601
2025-04-14 12:38:38.322,86699,18565,20831,72891,95569
2025-04-14 12:38:38.331,86657,18558,20821,72844,95509
2025-04-14 12:38:38.350,86626,18549,20810,72797,95457
2025-04-14 12:38:38.352,86578,18538,20801,72749,95390
2025-04-14 12:38:38.362,86497,18523,20782,72675,95331
2025-04-14 12:38:38.370,86414,18496,20763,72596,95239
2025-04-14 12:38:38.383,86302,18471,20745,72533,95155
2025-04-14 12:38:38.390,86216,18457,20723,72479,95077
2025-04-14 12:38:38.414,86134,18434,20713,72432,95023
2025-04-14 12:38:38.415,86066,18420,20698,72384,94960
2025-04-14 12:38:38.423,86027,18402,20684,72349,94906
2025-04-14 12:38:38.430,86043,18387,20672,72339,94868
2025-04-14 12:38:38.443,86104,18376,20670,72365,94878
2025-04-14 12:38:38.450,86181,18375,20668,72407,94913
2025-04-14 12:38:38.463,86276,18385,20680,72476,94989
2025-04-14 12:38:38.478,86368,18399,20693,72570,95101
2025-04-14 12:38:38.482,86453,18426,20714,72667,95218
2025-04-14 12:38:38.491,86533,18455,20740,72763,95352
2025-04-14 12:38:38.503,86607,18487,20768,72852,95471
2025-04-14 12:38:38.506,86607,18487,20768,72852,95471
2025-04-14 12:38:38.510,86724,18556,20827,72983,95696
2025-04-14 12:38:38.522,86770,18585,20850,73032,95760
2025-04-14 12:38:38.541,86787,18609,20874,73053,95812
2025-04-14 12:38:38.543,86794,18637,20889,73064,95839
2025-04-14 12:38:38.554,86776,18661,20906,73057,95850
2025-04-14 12:38:38.562,86739,18672,20913,73024,95833
2025-04-14 12:38:38.574,86681,18678,20917,72974,95787
2025-04-14 12:38:38.582,86621,18682,20912,72925,95738
2025-04-14 12:38:38.604,86561,18672,20911,72869,95673
2025-04-14 12:38:38.606,86506,18668,20898,72803,95581
2025-04-14 12:38:38.614,86443,18662,20889,72724,95503
2025-04-14 12:38:38.622,86380,18645,20879,72669,95430
2025-04-14 12:38:38.634,86332,18632,20872,72598,95359
2025-04-14 12:38:38.643,86312,18623,20862,72568,95286
2025-04-14 12:38:38.670,86306,18613,20854,72541,95245
2025-04-14 12:38:38.671,86332,18601,20849,72527,95218
2025-04-14 12:38:38.674,86367,18590,20840,72545,95213
2025-04-14 12:38:38.682,86394,18573,20826,72553,95241
2025-04-14 12:38:38.694,86417,18565,20813,72577,95250
2025-04-14 12:38:38.702,86440,18551,20797,72601,95284
2025-04-14 12:38:38.714,86456,18537,20784,72611,95340
2025-04-14 12:38:38.733,86482,18526,20766,72620,95325
2025-04-14 12:38:38.734,86496,18514,20752,72622,95355
2025-04-14 12:38:38.742,86515,18503,20740,72632,95376
2025-04-14 12:38:38.754,86536,18496,20724,72634,95371
2025-04-14 12:38:38.763,86563,18490,20719,72647,95387
2025-04-14 12:38:38.774,86560,18486,20711,72656,95408
2025-04-14 12:38:38.796,86563,18480,20705,72658,95412
2025-04-14 12:38:38.797,86554,18478,20702,72666,95401
2025-04-14 12:38:38.806,86546,18486,20701,72674,95398
2025-04-14 12:38:38.814,86551,18494,20706,72685,95412
2025-04-14 12:38:38.826,86584,18499,20711,72706,95417
2025-04-14 12:38:38.834,86621,18506,20724,72745,95435
2025-04-14 12:38:38.860,86679,18522,20736,72761,95462
2025-04-14 12:38:38.862,86763,18549,20751,72789,95496
2025-04-14 12:38:38.866,86838,18576,20770,72836,95549
2025-04-14 12:38:38.874,86897,18604,20797,72885,95574
2025-04-14 12:38:38.886,86936,18627,20818,72926,95642
2025-04-14 12:38:38.894,86969,18654,20837,72960,95685
2025-04-14 12:38:38.906,87003,18677,20856,72989,95713
2025-04-14 12:38:38.924,87003,18692,20869,72996,95733
2025-04-14 12:38:38.926,87004,18708,20880,72999,95745
2025-04-14 12:38:38.933,86998,18720,20890,72982,95740
2025-04-14 12:38:38.946,86993,18732,20896,72976,95731
2025-04-14 12:38:38.954,86973,18738,20904,72972,95707
2025-04-14 12:38:38.966,86949,18748,20910,72960,95710
2025-04-14 12:38:38.988,86900,18746,20910,72918,95687
2025-04-14 12:38:38.990,86805,18744,20905,72877,95640
2025-04-14 12:38:38.994,86715,18737,20892,72823,95593
2025-04-14 12:38:39.007,86630,18724,20886,72782,95516
2025-04-14 12:38:39.017,86548,18709,20866,72706,95453
2025-04-14 12:38:39.026,86448,18693,20851,72621,95394
2025-04-14 12:38:39.052,86388,18665,20822,72492,95314
2025-04-14 12:38:39.053,86341,18642,20804,72380,95198
2025-04-14 12:38:39.058,86299,18621,20789,72316,95106
2025-04-14 12:38:39.066,86261,18609,20770,72224,95017
2025-04-14 12:38:39.078,86229,18584,20753,72146,94932
2025-04-14 12:38:39.086,86217,18570,20739,72105,94822
2025-04-14 12:38:39.098,86266,18556,20729,72106,94793
2025-04-14 12:38:39.115,86401,18541,20723,72130,94813
2025-04-14 12:38:39.118,86538,18546,20725,72178,94866
2025-04-14 12:38:39.127,86646,18556,20736,72250,94950
2025-04-14 12:38:39.138,86718,18573,20752,72291,95034
2025-04-14 12:38:39.146,86711,18596,20771,72318,95098
2025-04-14 12:38:39.157,86679,18615,20789,72354,95133
2025-04-14 12:38:39.179,86635,18630,20810,72379,95173
2025-04-14 12:38:39.180,86589,18641,20820,72401,95208
2025-04-14 12:38:39.186,86586,18652,20824,72417,95222
2025-04-14 12:38:39.198,86600,18664,20837,72446,95265
2025-04-14 12:38:39.207,86626,18675,20843,72470,95277
2025-04-14 12:38:39.218,86665,18678,20846,72477,95290
2025-04-14 12:38:39.226,86709,18686,20849,72498,95302
2025-04-14 12:38:39.246,86755,18697,20853,72521,95311
2025-04-14 12:38:39.247,86795,18702,20862,72548,95350
2025-04-14 12:38:39.257,86813,18709,20867,72574,95355
2025-04-14 12:38:39.269,86834,18723,20877,72603,95374
2025-04-14 12:38:39.278,86855,18736,20891,72634,95408
2025-04-14 12:38:39.286,86855,18736,20891,72634,95408
2025-04-14 12:38:39.310,86855,18749,20899,72671,95435
2025-04-14 12:38:39.311,86856,18764,20916,72702,95465
2025-04-14 12:38:39.314,86856,18764,20916,72702,95465
2025-04-14 12:38:39.318,86856,18764,20916,72702,95465
2025-04-14 12:38:39.319,86818,18807,20952,72802,95548
2025-04-14 12:38:39.330,86801,18820,20960,72807,95570
2025-04-14 12:38:39.338,86781,18828,20965,72828,95585
2025-04-14 12:38:39.350,86755,18824,20965,72839,95583
2025-04-14 12:38:39.358,86726,18828,20954,72818,95588
2025-04-14 12:38:39.379,86688,18818,20947,72815,95567
2025-04-14 12:38:39.381,86668,18806,20931,72796,95542
2025-04-14 12:38:39.390,86648,18790,20919,72762,95509
2025-04-14 12:38:39.398,86618,18781,20898,72730,95475
2025-04-14 12:38:39.411,86607,18759,20878,72693,95434
2025-04-14 12:38:39.418,86620,18747,20861,72686,95397
2025-04-14 12:38:39.450,86630,18735,20844,72659,95376
2025-04-14 12:38:39.452,86632,18725,20834,72658,95369
2025-04-14 12:38:39.453,86650,18715,20824,72659,95356
2025-04-14 12:38:39.458,86663,18711,20813,72660,95360
2025-04-14 12:38:39.471,86658,18711,20809,72687,95366
2025-04-14 12:38:39.478,86670,18708,20805,72687,95376
2025-04-14 12:38:39.490,86667,18715,20804,72697,95385
2025-04-14 12:38:39.498,86694,18716,20803,72703,95406
2025-04-14 12:38:39.519,86691,18718,20807,72712,95423
2025-04-14 12:38:39.522,86701,18728,20809,72715,95418
2025-04-14 12:38:39.530,86711,18737,20814,72715,95431
2025-04-14 12:38:39.542,86697,18746,20814,72703,95426
2025-04-14 12:38:39.550,86694,18748,20818,72693,95405
2025-04-14 12:38:39.562,86669,18751,20816,72663,95400
2025-04-14 12:38:39.584,86640,18754,20818,72639,95368
2025-04-14 12:38:39.585,86619,18756,20816,72603,95340
2025-04-14 12:38:39.590,86599,18756,20818,72565,95286
2025-04-14 12:38:39.601,86568,18753,20817,72534,95252
2025-04-14 12:38:39.609,86546,18752,20816,72500,95218
2025-04-14 12:38:39.622,86521,18749,20809,72468,95183
2025-04-14 12:38:39.631,86478,18750,20811,72448,95155
2025-04-14 12:38:39.647,86407,18745,20805,72410,95112
2025-04-14 12:38:39.649,86319,18729,20793,72364,95074
2025-04-14 12:38:39.662,86221,18715,20782,72315,95016
2025-04-14 12:38:39.669,86121,18695,20769,72251,94952
2025-04-14 12:38:39.682,86045,18675,20745,72192,94895
2025-04-14 12:38:39.690,85995,18661,20736,72159,94843
2025-04-14 12:38:39.711,85939,18639,20713,72116,94810
2025-04-14 12:38:39.713,85880,18616,20698,72068,94779
2025-04-14 12:38:39.722,85834,18593,20677,72005,94719
2025-04-14 12:38:39.729,85804,18572,20656,71956,94640
2025-04-14 12:38:39.742,85844,18553,20647,71939,94602
2025-04-14 12:38:39.753,85950,18549,20635,71982,94584
2025-04-14 12:38:39.775,86144,18558,20661,72095,94655
2025-04-14 12:38:39.776,86362,18588,20679,72242,94828
2025-04-14 12:38:39.783,86515,18620,20708,72383,95002
2025-04-14 12:38:39.793,86652,18664,20742,72522,95164
2025-04-14 12:38:39.802,86722,18704,20769,72625,95336
2025-04-14 12:38:39.814,86729,18740,20803,72685,95445
2025-04-14 12:38:39.821,86725,18763,20822,72729,95514
2025-04-14 12:38:39.838,86723,18790,20844,72749,95560
2025-04-14 12:38:39.842,86707,18810,20857,72756,95578
2025-04-14 12:38:39.854,86670,18816,20863,72726,95574
2025-04-14 12:38:39.861,86628,18830,20867,72686,95548
2025-04-14 12:38:39.873,86576,18828,20869,72639,95508
2025-04-14 12:38:39.882,86537,18827,20871,72592,95431
2025-04-14 12:38:39.901,86488,18824,20863,72555,95382
2025-04-14 12:38:39.902,86473,18827,20861,72511,95323
2025-04-14 12:38:39.914,86457,18822,20860,72498,95284
2025-04-14 12:38:39.921,86475,18820,20868,72506,95277
2025-04-14 12:38:39.934,86518,18826,20876,72531,95299
2025-04-14 12:38:39.942,86558,18840,20887,72562,95328
2025-04-14 12:38:39.966,86596,18849,20896,72613,95395
2025-04-14 12:38:39.967,86619,18866,20911,72649,95460
2025-04-14 12:38:39.975,86637,18884,20925,72697,95512
2025-04-14 12:38:39.982,86667,18901,20941,72742,95562
2025-04-14 12:38:39.994,86698,18917,20953,72782,95609
2025-04-14 12:38:40.006,86731,18935,20963,72822,95658
2025-04-14 12:38:40.013,86786,18953,20984,72884,95704
2025-04-14 12:38:40.029,86828,18972,21006,72919,95765
2025-04-14 12:38:40.034,86897,18993,21016,72970,95816
2025-04-14 12:38:40.045,86942,19011,21029,73009,95864
2025-04-14 12:38:40.054,86989,19026,21045,73037,95912
2025-04-14 12:38:40.066,87029,19044,21055,73072,95939
2025-04-14 12:38:40.073,87040,19055,21057,73084,95964
2025-04-14 12:38:40.093,87063,19059,21065,73093,95990
2025-04-14 12:38:40.094,87070,19062,21057,73098,95975
2025-04-14 12:38:40.106,87067,19057,21045,73085,95983
2025-04-14 12:38:40.117,87074,19058,21042,73076,95984
2025-04-14 12:38:40.118,87074,19058,21042,73076,95984
2025-04-14 12:38:40.125,87088,19048,21018,73034,95947
2025-04-14 12:38:40.133,87082,19040,21007,72999,95926
2025-04-14 12:38:40.156,87075,19036,20998,72977,95899
2025-04-14 12:38:40.157,87063,19034,20990,72945,95854
2025-04-14 12:38:40.165,87039,19025,20975,72916,95834
2025-04-14 12:38:40.173,87023,19020,20970,72892,95786
2025-04-14 12:38:40.185,86997,19014,20960,72847,95767
2025-04-14 12:38:40.194,86972,19007,20950,72808,95718
2025-04-14 12:38:40.219,86934,18997,20943,72763,95670
2025-04-14 12:38:40.221,86905,18995,20941,72738,95625
2025-04-14 12:38:40.226,86876,18995,20930,72699,95578
2025-04-14 12:38:40.234,86825,18985,20930,72658,95530
2025-04-14 12:38:40.245,86779,18986,20926,72621,95484
2025-04-14 12:38:40.258,86702,18978,20922,72573,95427
2025-04-14 12:38:40.266,86615,18966,20912,72520,95390
2025-04-14 12:38:40.282,86531,18953,20903,72477,95326
2025-04-14 12:38:40.286,86506,18940,20887,72418,95288
2025-04-14 12:38:40.297,86553,18931,20884,72392,95245
2025-04-14 12:38:40.306,86600,18919,20880,72391,95265
2025-04-14 12:38:40.318,86569,18911,20872,72353,95260
2025-04-14 12:38:40.325,86519,18898,20861,72331,95198
2025-04-14 12:38:40.346,86442,18885,20850,72321,95161
2025-04-14 12:38:40.347,86420,18872,20847,72311,95154
2025-04-14 12:38:40.358,86463,18873,20844,72356,95151
2025-04-14 12:38:40.366,86561,18883,20849,72432,95229
2025-04-14 12:38:40.377,86681,18901,20863,72524,95299
2025-04-14 12:38:40.386,86767,18925,20887,72604,95428
2025-04-14 12:38:40.410,86782,18944,20908,72657,95522
2025-04-14 12:38:40.411,86769,18964,20922,72679,95574
2025-04-14 12:38:40.418,86722,18981,20930,72684,95607
2025-04-14 12:38:40.425,86672,18990,20941,72672,95607
2025-04-14 12:38:40.438,86619,18993,20943,72657,95582
2025-04-14 12:38:40.445,86586,18991,20945,72618,95545
2025-04-14 12:38:40.458,86589,18992,20935,72586,95500
2025-04-14 12:38:40.473,86599,18988,20938,72555,95453
2025-04-14 12:38:40.477,86599,18987,20933,72519,95424
2025-04-14 12:38:40.486,86606,18983,20928,72503,95393
2025-04-14 12:38:40.497,86610,18981,20926,72481,95376
2025-04-14 12:38:40.506,86595,18977,20925,72466,95334
2025-04-14 12:38:40.517,86588,18979,20931,72471,95340
2025-04-14 12:38:40.537,86597,18981,20930,72475,95329
2025-04-14 12:38:40.538,86596,18979,20931,72489,95325
2025-04-14 12:38:40.550,86605,18987,20941,72524,95348
2025-04-14 12:38:40.557,86639,18997,20947,72563,95374
2025-04-14 12:38:40.569,86689,19000,20955,72604,95426
2025-04-14 12:38:40.577,86713,19015,20961,72630,95450
2025-04-14 12:38:40.601,86726,19020,20970,72652,95482
2025-04-14 12:38:40.602,86732,19032,20979,72666,95508
2025-04-14 12:38:40.609,86737,19040,20988,72672,95506
2025-04-14 12:38:40.618,86730,19052,20993,72685,95519
2025-04-14 12:38:40.630,86742,19061,21006,72706,95529
2025-04-14 12:38:40.637,86754,19065,21010,72721,95548
2025-04-14 12:38:40.650,86778,19078,21020,72738,95568
2025-04-14 12:38:40.670,86811,19093,21032,72752,95586
2025-04-14 12:38:40.672,86858,19099,21043,72791,95605
2025-04-14 12:38:40.677,86891,19116,21055,72825,95632
2025-04-14 12:38:40.689,86937,19129,21062,72854,95675
2025-04-14 12:38:40.698,86966,19145,21077,72894,95707
2025-04-14 12:38:40.709,87007,19163,21093,72924,95751
2025-04-14 12:38:40.718,87039,19180,21106,72968,95784
2025-04-14 12:38:40.733,87066,19197,21121,72991,95825
2025-04-14 12:38:40.737,87081,19215,21132,73015,95869
2025-04-14 12:38:40.750,87096,19228,21147,73036,95879
2025-04-14 12:38:40.757,87099,19246,21161,73025,95898
2025-04-14 12:38:40.769,87107,19257,21173,73016,95898
2025-04-14 12:38:40.777,87105,19263,21173,73001,95892
2025-04-14 12:38:40.798,87109,19264,21172,72992,95875
2025-04-14 12:38:40.801,87105,19253,21167,72978,95855
2025-04-14 12:38:40.809,87094,19251,21154,72954,95844
2025-04-14 12:38:40.821,87073,19238,21145,72939,95818
2025-04-14 12:38:40.829,87057,19229,21131,72928,95797
2025-04-14 12:38:40.842,87045,19217,21114,72914,95768
2025-04-14 12:38:40.864,87035,19203,21094,72892,95756
2025-04-14 12:38:40.865,87029,19197,21083,72898,95730
2025-04-14 12:38:40.870,87033,19184,21072,72893,95721
2025-04-14 12:38:40.881,87006,19179,21059,72894,95718
2025-04-14 12:38:40.889,86984,19176,21057,72878,95720
2025-04-14 12:38:40.901,86892,19167,21046,72837,95716
2025-04-14 12:38:40.909,86794,19157,21037,72779,95660
2025-04-14 12:38:40.929,86666,19136,21012,72682,95573
2025-04-14 12:38:40.930,86560,19111,20982,72600,95460
2025-04-14 12:38:40.941,86472,19080,20967,72535,95366
2025-04-14 12:38:40.949,86423,19065,20944,72495,95312
2025-04-14 12:38:40.961,86365,19046,20936,72470,95268
2025-04-14 12:38:40.969,86334,19033,20926,72443,95232
2025-04-14 12:38:40.993,86384,19031,20926,72457,95198
2025-04-14 12:38:40.995,86488,19036,20929,72521,95250
2025-04-14 12:38:41.000,86627,19048,20946,72627,95332
2025-04-14 12:38:41.010,86777,19059,20964,72752,95483
2025-04-14 12:38:41.021,86899,19083,20982,72880,95639
2025-04-14 12:38:41.029,86965,19102,21005,72988,95788
2025-04-14 12:38:41.041,87015,19130,21013,73056,95893
2025-04-14 12:38:41.057,87041,19145,21035,73105,95963
2025-04-14 12:38:41.062,87058,19161,21046,73139,96006
2025-04-14 12:38:41.069,87057,19171,21051,73128,96024
2025-04-14 12:38:41.081,87049,19179,21054,73120,96014
2025-04-14 12:38:41.093,87041,19185,21060,73105,95983
2025-04-14 12:38:41.101,87058,19185,21056,73094,95965
2025-04-14 12:38:41.119,87062,19172,21052,73081,95952
2025-04-14 12:38:41.120,87089,19177,21052,73089,95932
2025-04-14 12:38:41.126,87089,19177,21052,73089,95932
2025-04-14 12:38:41.133,87194,19190,21059,73178,95966
2025-04-14 12:38:41.141,87283,19197,21071,73253,96043
2025-04-14 12:38:41.154,87372,19213,21082,73334,96121
2025-04-14 12:38:41.161,87465,19231,21100,73436,96211
2025-04-14 12:38:41.183,87557,19254,21123,73530,96305
2025-04-14 12:38:41.184,87648,19282,21144,73628,96417
2025-04-14 12:38:41.193,87729,19311,21166,73719,96529
2025-04-14 12:38:41.201,87838,19338,21185,73797,96618
2025-04-14 12:38:41.214,87923,19365,21208,73856,96727
2025-04-14 12:38:41.221,87997,19392,21228,73900,96774
2025-04-14 12:38:41.248,88066,19414,21245,73916,96828
2025-04-14 12:38:41.249,88114,19435,21257,73925,96872
2025-04-14 12:38:41.253,88169,19452,21274,73939,96878
2025-04-14 12:38:41.261,88236,19467,21287,73944,96893
2025-04-14 12:38:41.273,88327,19490,21303,73948,96892
2025-04-14 12:38:41.282,88403,19507,21311,73956,96916
2025-04-14 12:38:41.293,88465,19526,21334,73983,96937
2025-04-14 12:38:41.312,88526,19542,21349,73997,96957
2025-04-14 12:38:41.313,88577,19566,21367,74025,97016
2025-04-14 12:38:41.326,88621,19585,21388,74065,97039
2025-04-14 12:38:41.333,88656,19610,21403,74093,97079
2025-04-14 12:38:41.346,88671,19633,21424,74126,97113
2025-04-14 12:38:41.353,88689,19657,21447,74144,97147
2025-04-14 12:38:41.377,88675,19685,21474,74177,97185
2025-04-14 12:38:41.379,88655,19710,21491,74201,97200
2025-04-14 12:38:41.386,88615,19729,21505,74207,97231
2025-04-14 12:38:41.393,88572,19744,21520,74195,97233
2025-04-14 12:38:41.406,88536,19760,21536,74173,97218
2025-04-14 12:38:41.413,88481,19774,21547,74161,97195
2025-04-14 12:38:41.425,88423,19789,21561,74146,97179
2025-04-14 12:38:41.440,88369,19795,21573,74116,97149
2025-04-14 12:38:41.446,88288,19807,21580,74081,97112
2025-04-14 12:38:41.453,88198,19816,21583,74040,97079
2025-04-14 12:38:41.465,88100,19823,21589,73993,97030
2025-04-14 12:38:41.473,87983,19823,21600,73941,96980
2025-04-14 12:38:41.485,87844,19825,21603,73892,96923
2025-04-14 12:38:41.505,87767,19818,21592,73821,96865
2025-04-14 12:38:41.506,87781,19794,21575,73755,96838
2025-04-14 12:38:41.512,87834,19786,21563,73762,96820
2025-04-14 12:38:41.525,87756,19765,21560,73727,96787
2025-04-14 12:38:41.533,87629,19752,21537,73686,96726
2025-04-14 12:38:41.545,87530,19730,21525,73655,96680
2025-04-14 12:38:41.553,87444,19712,21499,73632,96626
2025-04-14 12:38:41.569,87357,19695,21490,73608,96595
2025-04-14 12:38:41.577,87269,19688,21476,73602,96580
2025-04-14 12:38:41.585,87190,19672,21462,73575,96571
2025-04-14 12:38:41.597,87115,19663,21452,73537,96529
2025-04-14 12:38:41.604,87049,19649,21448,73528,96495
2025-04-14 12:38:41.617,86996,19635,21435,73508,96480
2025-04-14 12:38:41.634,86984,19626,21433,73490,96464
2025-04-14 12:38:41.637,86996,19616,21428,73471,96436
2025-04-14 12:38:41.645,87050,19616,21422,73465,96434
2025-04-14 12:38:41.657,87113,19618,21421,73465,96425
2025-04-14 12:38:41.665,87205,19617,21426,73479,96445
2025-04-14 12:38:41.677,87295,19626,21432,73507,96480
2025-04-14 12:38:41.697,87353,19629,21440,73526,96513
2025-04-14 12:38:41.698,87382,19637,21447,73543,96552
2025-04-14 12:38:41.705,87368,19645,21458,73542,96576
2025-04-14 12:38:41.717,87349,19650,21467,73544,96561
2025-04-14 12:38:41.725,87319,19656,21474,73554,96557
2025-04-14 12:38:41.737,87298,19661,21478,73561,96551
2025-04-14 12:38:41.744,87312,19663,21483,73568,96546
2025-04-14 12:38:41.760,87334,19667,21488,73593,96557
2025-04-14 12:38:41.765,87379,19674,21498,73607,96570
2025-04-14 12:38:41.777,87434,19683,21503,73648,96592
2025-04-14 12:38:41.784,87490,19692,21510,73684,96618
2025-04-14 12:38:41.797,87537,19701,21516,73728,96662
2025-04-14 12:38:41.809,87589,19713,21527,73771,96703
2025-04-14 12:38:41.824,87618,19723,21538,73820,96759
2025-04-14 12:38:41.829,87638,19736,21557,73854,96800
2025-04-14 12:38:41.837,87645,19754,21565,73905,96825
2025-04-14 12:38:41.849,87657,19768,21577,73945,96869
2025-04-14 12:38:41.857,87674,19779,21592,73981,96910
2025-04-14 12:38:41.868,87687,19795,21601,74033,96951
2025-04-14 12:38:41.888,87717,19805,21614,74073,96981
2025-04-14 12:38:41.889,87765,19825,21621,74113,97028
2025-04-14 12:38:41.897,87805,19839,21638,74154,97074
2025-04-14 12:38:41.909,87844,19860,21654,74204,97124
2025-04-14 12:38:41.917,87895,19876,21666,74240,97163
2025-04-14 12:38:41.929,87934,19897,21692,74285,97219
2025-04-14 12:38:41.933,87934,19897,21692,74285,97219
2025-04-14 12:38:41.937,87940,19933,21720,74318,97294
2025-04-14 12:38:41.954,87927,19948,21733,74318,97313
2025-04-14 12:38:41.957,87893,19959,21741,74294,97310
2025-04-14 12:38:41.969,87864,19966,21748,74266,97272
2025-04-14 12:38:41.977,87824,19977,21750,74237,97241
2025-04-14 12:38:41.989,87768,19985,21758,74213,97215
2025-04-14 12:38:41.997,87737,19980,21754,74195,97189
2025-04-14 12:38:42.018,87708,19981,21747,74186,97176
2025-04-14 12:38:42.019,87697,19974,21741,74171,97184
2025-04-14 12:38:42.029,87700,19968,21735,74173,97181
2025-04-14 12:38:42.037,87704,19969,21735,74159,97178
2025-04-14 12:38:42.049,87707,19962,21736,74154,97122
2025-04-14 12:38:42.061,87683,19960,21747,74165,97104
2025-04-14 12:38:42.082,87595,19973,21755,74166,97114
2025-04-14 12:38:42.083,87489,19974,21757,74123,97089
2025-04-14 12:38:42.089,87374,19969,21760,74055,97046
2025-04-14 12:38:42.100,87281,19959,21752,73971,96946
2025-04-14 12:38:42.110,87193,19949,21744,73915,96879
2025-04-14 12:38:42.121,87115,19935,21731,73850,96802
2025-04-14 12:38:42.129,87061,19926,21720,73785,96722
2025-04-14 12:38:42.147,87057,19915,21708,73746,96687
2025-04-14 12:38:42.149,87100,19905,21703,73717,96651
2025-04-14 12:38:42.161,87197,19900,21698,73734,96643
2025-04-14 12:38:42.169,87320,19891,21701,73774,96666
2025-04-14 12:38:42.181,87412,19898,21703,73824,96714
2025-04-14 12:38:42.188,87461,19904,21718,73876,96769
2025-04-14 12:38:42.211,87475,19911,21721,73915,96819
2025-04-14 12:38:42.212,87459,19912,21727,73944,96851
2025-04-14 12:38:42.221,87433,19913,21721,73966,96880
2025-04-14 12:38:42.229,87422,19903,21718,73981,96876
2025-04-14 12:38:42.241,87402,19891,21703,73983,96887
2025-04-14 12:38:42.249,87373,19879,21691,73976,96882
2025-04-14 12:38:42.275,87373,19870,21679,73974,96865
2025-04-14 12:38:42.276,87380,19856,21669,73969,96865
2025-04-14 12:38:42.281,87464,19856,21662,73994,96872
2025-04-14 12:38:42.289,87572,19854,21664,74030,96926
2025-04-14 12:38:42.301,87698,19858,21671,74094,96982
2025-04-14 12:38:42.309,87768,19868,21669,74155,97087
2025-04-14 12:38:42.321,87803,19878,21679,74201,97177
2025-04-14 12:38:42.338,87795,19890,21688,74226,97247
2025-04-14 12:38:42.340,87768,19905,21695,74256,97282
2025-04-14 12:38:42.353,87754,19915,21708,74283,97314
2025-04-14 12:38:42.361,87757,19925,21718,74317,97337
2025-04-14 12:38:42.373,87771,19943,21732,74342,97351
2025-04-14 12:38:42.381,87823,19961,21748,74376,97395
2025-04-14 12:38:42.401,87879,19979,21760,74397,97423
2025-04-14 12:38:42.402,87947,19996,21774,74424,97441
2025-04-14 12:38:42.412,88032,20019,21794,74447,97474
2025-04-14 12:38:42.421,88095,20047,21814,74475,97509
2025-04-14 12:38:42.433,88136,20067,21830,74495,97537
2025-04-14 12:38:42.441,88186,20084,21849,74519,97565
2025-04-14 12:38:42.464,88188,20102,21861,74541,97591
2025-04-14 12:38:42.465,88206,20114,21875,74547,97583
2025-04-14 12:38:42.472,88200,20122,21883,74545,97595
2025-04-14 12:38:42.480,88205,20130,21891,74560,97600
2025-04-14 12:38:42.493,88188,20143,21898,74568,97595
2025-04-14 12:38:42.501,88159,20148,21903,74554,97594
2025-04-14 12:38:42.513,88119,20151,21906,74537,97560
2025-04-14 12:38:42.528,88064,20152,21906,74494,97550
2025-04-14 12:38:42.532,87968,20153,21904,74456,97494
2025-04-14 12:38:42.541,87866,20145,21900,74398,97448
2025-04-14 12:38:42.553,87750,20139,21894,74346,97378
2025-04-14 12:38:42.561,87664,20129,21882,74284,97331
2025-04-14 12:38:42.573,87633,20115,21870,74247,97281
2025-04-14 12:38:42.591,87660,20108,21859,74221,97265
2025-04-14 12:38:42.593,87709,20110,21862,74221,97272
2025-04-14 12:38:42.601,87739,20106,21869,74211,97254
2025-04-14 12:38:42.612,87671,20106,21880,74199,97218
2025-04-14 12:38:42.624,87600,20109,21880,74174,97185
2025-04-14 12:38:42.632,87525,20099,21871,74121,97157
2025-04-14 12:38:42.656,87470,20086,21864,74066,97092
2025-04-14 12:38:42.658,87441,20079,21859,74034,97035
2025-04-14 12:38:42.665,87446,20081,21856,74035,97001
2025-04-14 12:38:42.672,87445,20079,21858,74028,97000
2025-04-14 12:38:42.685,87455,20076,21858,74033,96996
2025-04-14 12:38:42.692,87432,20082,21863,74032,97010
2025-04-14 12:38:42.704,87400,20085,21858,74012,97023
2025-04-14 12:38:42.720,87368,20072,21853,73972,96991
2025-04-14 12:38:42.725,87313,20063,21851,73946,96949
2025-04-14 12:38:42.736,87301,20060,21848,73914,96904
2025-04-14 12:38:42.738,87301,20060,21848,73914,96904
2025-04-14 12:38:42.744,87254,20068,21859,73877,96868
2025-04-14 12:38:42.753,87243,20071,21870,73839,96859
2025-04-14 12:38:42.764,87203,20082,21878,73819,96827
2025-04-14 12:38:42.783,87169,20088,21884,73768,96806
2025-04-14 12:38:42.785,87123,20087,21888,73717,96765
2025-04-14 12:38:42.792,87067,20079,21888,73668,96710
2025-04-14 12:38:42.804,87052,20081,21893,73641,96650
2025-04-14 12:38:42.812,87101,20085,21903,73648,96642
2025-04-14 12:38:42.825,87219,20084,21905,73709,96688
2025-04-14 12:38:42.832,87378,20094,21915,73773,96756
2025-04-14 12:38:42.848,87526,20102,21934,73852,96853
2025-04-14 12:38:42.852,87645,20117,21955,73940,96951
2025-04-14 12:38:42.864,87739,20134,21968,74003,97069
2025-04-14 12:38:42.877,87812,20153,21987,74090,97143
2025-04-14 12:38:42.884,87871,20170,22004,74151,97227
2025-04-14 12:38:42.896,87927,20183,22017,74230,97308
2025-04-14 12:38:42.911,87966,20195,22022,74301,97368
2025-04-14 12:38:42.916,88011,20208,22033,74388,97450
2025-04-14 12:38:42.924,88061,20215,22032,74451,97504
2025-04-14 12:38:42.936,88114,20228,22044,74521,97575
2025-04-14 12:38:42.945,88167,20242,22047,74583,97646
2025-04-14 12:38:42.956,88212,20258,22054,74657,97698
2025-04-14 12:38:42.976,88269,20271,22062,74703,97760
2025-04-14 12:38:42.977,88306,20281,22071,74764,97812
2025-04-14 12:38:42.984,88359,20297,22076,74822,97839
2025-04-14 12:38:42.996,88398,20316,22086,74855,97906
2025-04-14 12:38:43.005,88434,20338,22099,74901,97946
2025-04-14 12:38:43.016,88468,20359,22117,74921,97978
2025-04-14 12:38:43.024,88480,20375,22127,74933,98020
2025-04-14 12:38:43.040,88470,20392,22140,74937,98027
2025-04-14 12:38:43.044,88453,20404,22149,74904,98025
2025-04-14 12:38:43.056,88418,20414,22152,74870,98001
2025-04-14 12:38:43.064,88378,20417,22154,74826,97960
2025-04-14 12:38:43.076,88331,20420,22149,74795,97937
2025-04-14 12:38:43.085,88319,20416,22139,74764,97908
2025-04-14 12:38:43.105,88341,20407,22126,74738,97892
2025-04-14 12:38:43.108,88366,20405,22120,74765,97880
2025-04-14 12:38:43.116,88370,20407,22131,74747,97880
2025-04-14 12:38:43.128,88341,20413,22152,74747,97857
2025-04-14 12:38:43.137,88236,20415,22156,74733,97799
2025-04-14 12:38:43.148,88081,20410,22158,74667,97762
2025-04-14 12:38:43.169,87910,20396,22144,74605,97693
2025-04-14 12:38:43.170,87823,20370,22115,74497,97611
2025-04-14 12:38:43.176,87764,20346,22099,74436,97498
2025-04-14 12:38:43.188,87767,20333,22082,74380,97432
2025-04-14 12:38:43.197,87751,20313,22067,74334,97380
2025-04-14 12:38:43.208,87737,20303,22054,74275,97310
2025-04-14 12:38:43.216,87733,20284,22041,74228,97255
2025-04-14 12:38:43.232,87723,20276,22033,74202,97219
2025-04-14 12:38:43.236,87738,20268,22022,74169,97193
2025-04-14 12:38:43.248,87739,20260,22017,74161,97158
2025-04-14 12:38:43.256,87766,20260,22027,74209,97136
2025-04-14 12:38:43.268,87795,20258,22026,74243,97205
2025-04-14 12:38:43.277,87847,20252,22026,74279,97248
2025-04-14 12:38:43.297,87899,20246,22016,74298,97274
2025-04-14 12:38:43.298,87969,20243,22016,74314,97299
2025-04-14 12:38:43.309,88028,20251,22023,74350,97333
2025-04-14 12:38:43.316,88151,20258,22034,74427,97366
2025-04-14 12:38:43.329,88351,20275,22059,74541,97459
2025-04-14 12:38:43.340,88617,20302,22075,74667,97581
2025-04-14 12:38:43.360,88845,20326,22100,74812,97723
2025-04-14 12:38:43.361,89047,20358,22122,74951,97899
2025-04-14 12:38:43.368,89162,20391,22159,75094,98067
2025-04-14 12:38:43.380,89269,20416,22184,75216,98228
2025-04-14 12:38:43.389,89356,20457,22220,75322,98357
2025-04-14 12:38:43.400,89407,20488,22247,75409,98468
2025-04-14 12:38:43.408,89471,20521,22269,75482,98565
2025-04-14 12:38:43.425,89530,20547,22293,75543,98613
2025-04-14 12:38:43.429,89623,20577,22329,75585,98661
2025-04-14 12:38:43.440,89720,20599,22347,75636,98721
2025-04-14 12:38:43.448,89850,20621,22366,75681,98764
2025-04-14 12:38:43.460,89981,20650,22386,75729,98834
2025-04-14 12:38:43.469,90091,20675,22408,75786,98871
2025-04-14 12:38:43.491,90182,20699,22433,75846,98933
2025-04-14 12:38:43.493,90230,20723,22450,75898,99000
2025-04-14 12:38:43.501,90302,20740,22468,75977,99045
2025-04-14 12:38:43.509,90371,20762,22484,76054,99111
2025-04-14 12:38:43.521,90459,20780,22502,76137,99184
2025-04-14 12:38:43.528,90526,20798,22517,76217,99257
2025-04-14 12:38:43.541,90587,20815,22529,76281,99348
2025-04-14 12:38:43.557,90587,20815,22529,76281,99348
2025-04-14 12:38:43.558,90658,20823,22537,76347,99408
2025-04-14 12:38:43.559,90637,20825,22533,76340,99408
2025-04-14 12:38:43.568,90574,20822,22517,76326,99377
2025-04-14 12:38:43.580,90519,20810,22504,76285,99353
2025-04-14 12:38:43.588,90465,20800,22486,76238,99293
2025-04-14 12:38:43.601,90395,20784,22475,76215,99251
2025-04-14 12:38:43.620,90318,20779,22463,76173,99239
2025-04-14 12:38:43.622,90223,20767,22446,76090,99209
2025-04-14 12:38:43.631,90126,20751,22427,76033,99151
2025-04-14 12:38:43.640,89404,20728,22532,76059,99077
2025-04-14 12:38:43.652,89313,20712,22521,76068,99045
2025-04-14 12:38:43.660,89246,20708,22513,76056,99035
2025-04-14 12:38:43.684,89240,20704,22511,76060,99006
2025-04-14 12:38:43.685,89253,20698,22501,76077,99012
2025-04-14 12:38:43.692,89277,20694,22498,76067,99007
2025-04-14 12:38:43.700,89327,20685,22491,76044,98997
2025-04-14 12:38:43.713,89337,20685,22484,76012,98978
2025-04-14 12:38:43.720,89350,20682,22488,75986,98959
2025-04-14 12:38:43.732,89368,20689,22490,75968,98925
2025-04-14 12:38:43.748,89764,20689,22414,75895,98903
2025-04-14 12:38:43.752,89832,20685,22409,75855,98818
2025-04-14 12:38:43.760,89888,20686,22392,75784,98796
2025-04-14 12:38:43.772,89911,20690,22380,75722,98741
2025-04-14 12:38:43.779,89850,20688,22378,75639,98661
2025-04-14 12:38:43.792,89810,20676,22378,75567,98600
2025-04-14 12:38:43.811,89825,20680,22379,75513,98533
2025-04-14 12:38:43.813,89892,20678,22379,75468,98477
2025-04-14 12:38:43.820,90004,20676,22382,75457,98465
2025-04-14 12:38:43.832,90129,20681,22394,75471,98478
2025-04-14 12:38:43.840,90238,20696,22414,75503,98508
2025-04-14 12:38:43.852,90333,20713,22431,75559,98584
2025-04-14 12:38:43.876,90409,20730,22456,75635,98644
2025-04-14 12:38:43.878,90464,20755,22478,75688,98726
2025-04-14 12:38:43.884,90487,20778,22496,75750,98814
2025-04-14 12:38:43.892,90535,20799,22526,75813,98874
2025-04-14 12:38:43.905,90613,20821,22540,75879,98931
2025-04-14 12:38:43.912,90705,20846,22569,75965,99001
2025-04-14 12:38:43.924,90820,20871,22586,76055,99087
2025-04-14 12:38:43.940,90948,20899,22615,76152,99179
2025-04-14 12:38:43.943,91073,20928,22646,76246,99268
2025-04-14 12:38:43.952,91183,20963,22675,76341,99384
2025-04-14 12:38:43.963,91272,20995,22705,76436,99468
2025-04-14 12:38:43.972,91354,21026,22730,76517,99564
2025-04-14 12:38:43.984,91411,21056,22754,76578,99637
2025-04-14 12:38:44.004,91466,21085,22785,76640,99712
2025-04-14 12:38:44.005,91458,21112,22799,76686,99773
2025-04-14 12:38:44.012,91467,21128,22821,76714,99828
2025-04-14 12:38:44.023,91491,21130,22823,76732,99868
2025-04-14 12:38:44.032,91564,21129,22818,76759,99885
2025-04-14 12:38:44.044,91671,21128,22818,76752,99909
2025-04-14 12:38:44.051,91752,21123,22814,76707,99907
2025-04-14 12:38:44.068,91825,21122,22812,76667,99894
2025-04-14 12:38:44.072,91921,21118,22804,76663,99878
2025-04-14 12:38:44.083,91950,21120,22818,76647,99894
2025-04-14 12:38:44.096,91949,21120,22821,76642,99901
2025-04-14 12:38:44.104,91934,21104,22815,76600,99922
2025-04-14 12:38:44.116,91850,21073,22781,76432,99894
2025-04-14 12:38:44.132,91617,21034,22732,76234,99720
2025-04-14 12:38:44.135,91576,20989,22698,76054,99498
2025-04-14 12:38:44.144,91629,20949,22692,76000,99264
2025-04-14 12:38:44.155,91634,20951,22700,76044,99188
2025-04-14 12:38:44.164,91593,20943,22706,76047,99220
2025-04-14 12:38:44.176,91538,20932,22696,76006,99220
2025-04-14 12:38:44.195,91511,20911,22685,75953,99159
2025-04-14 12:38:44.197,91532,20893,22673,75918,99125
2025-04-14 12:38:44.204,91562,20885,22664,75927,99093
2025-04-14 12:38:44.215,91611,20879,22665,75949,99093
2025-04-14 12:38:44.224,91639,20889,22673,75959,99089
2025-04-14 12:38:44.236,91676,20878,22674,75962,99099
2025-04-14 12:38:44.244,91752,20878,22681,75987,99093
2025-04-14 12:38:44.260,91876,20892,22688,76042,99138
2025-04-14 12:38:44.263,92089,20915,22709,76135,99195
2025-04-14 12:38:44.275,92342,20937,22729,76241,99321
2025-04-14 12:38:44.284,92563,20960,22749,76313,99435
2025-04-14 12:38:44.296,92695,20990,22768,76368,99511
2025-04-14 12:38:44.304,92763,21007,22783,76414,99574
2025-04-14 12:38:44.323,92765,21032,22803,76473,99627
2025-04-14 12:38:44.324,92750,21056,22820,76543,99701
2025-04-14 12:38:44.336,92717,21079,22833,76602,99808
2025-04-14 12:38:44.347,92714,21105,22855,76661,99884
2025-04-14 12:38:44.348,92714,21105,22855,76661,99884
2025-04-14 12:38:44.356,92757,21155,22892,76773,100018
2025-04-14 12:38:44.368,92821,21184,22915,76831,100069
2025-04-14 12:38:44.387,92864,21214,22938,76882,100128
2025-04-14 12:38:44.388,92879,21242,22968,76929,100156
2025-04-14 12:38:44.396,92910,21271,22989,76975,100214
2025-04-14 12:38:44.408,92935,21293,23016,77011,100248
2025-04-14 12:38:44.416,92959,21324,23047,77069,100305
2025-04-14 12:38:44.428,92995,21357,23077,77121,100355
2025-04-14 12:38:44.435,93020,21381,23098,77156,100407
2025-04-14 12:38:44.452,93051,21406,23120,77204,100457
2025-04-14 12:38:44.456,93080,21436,23145,77259,100508
2025-04-14 12:38:44.468,93115,21459,23172,77289,100539
2025-04-14 12:38:44.475,93162,21482,23203,77328,100582
2025-04-14 12:38:44.488,93215,21507,23222,77373,100637
2025-04-14 12:38:44.495,93249,21525,23243,77416,100674
2025-04-14 12:38:44.515,93263,21551,23260,77414,100699
2025-04-14 12:38:44.516,93229,21563,23272,77389,100729
2025-04-14 12:38:44.528,93134,21574,23285,77353,100708
2025-04-14 12:38:44.535,92998,21587,23294,77309,100683
2025-04-14 12:38:44.548,92800,21590,23299,77246,100647
2025-04-14 12:38:44.556,92669,21582,23294,77148,100581
2025-04-14 12:38:44.579,92624,21571,23286,77051,100510
2025-04-14 12:38:44.580,92627,21545,23268,76956,100423
2025-04-14 12:38:44.588,92604,21534,23265,77004,100307
2025-04-14 12:38:44.595,92597,21535,23278,77118,100336
2025-04-14 12:38:44.608,92592,21543,23278,77156,100444
2025-04-14 12:38:44.616,92638,21536,23267,77167,100477
2025-04-14 12:38:44.627,92710,21531,23264,77175,100465
2025-04-14 12:38:44.644,92745,21521,23261,77177,100449
2025-04-14 12:38:44.648,92832,21524,23264,77207,100467
2025-04-14 12:38:44.655,92937,21530,23263,77259,100524
2025-04-14 12:38:44.668,93081,21533,23268,77309,100589
2025-04-14 12:38:44.676,93194,21549,23275,77390,100640
2025-04-14 12:38:44.688,93291,21564,23283,77460,100714
2025-04-14 12:38:44.707,93373,21582,23299,77510,100799
2025-04-14 12:38:44.709,93426,21592,23305,77563,100861
2025-04-14 12:38:44.719,93483,21614,23317,77609,100911
2025-04-14 12:38:44.727,93544,21629,23336,77646,100953
2025-04-14 12:38:44.740,93605,21652,23355,77680,100996
2025-04-14 12:38:44.747,93682,21675,23372,77709,101037
2025-04-14 12:38:44.772,93768,21685,23387,77728,101072
2025-04-14 12:38:44.773,93860,21701,23405,77746,101097
2025-04-14 12:38:44.780,93930,21726,23429,77761,101126
2025-04-14 12:38:44.789,93961,21746,23450,77775,101162
2025-04-14 12:38:44.799,93953,21769,23470,77771,101194
2025-04-14 12:38:44.808,93883,21795,23493,77756,101198
2025-04-14 12:38:44.819,93819,21812,23511,77754,101189
2025-04-14 12:38:44.837,93740,21831,23529,77741,101179
2025-04-14 12:38:44.840,93696,21847,23550,77731,101175
2025-04-14 12:38:44.848,93662,21861,23565,77734,101156
2025-04-14 12:38:44.860,93626,21877,23573,77736,101172
2025-04-14 12:38:44.867,93618,21887,23589,77741,101153
2025-04-14 12:38:44.880,93579,21893,23598,77733,101150
2025-04-14 12:38:44.901,93523,21893,23593,77732,101138
2025-04-14 12:38:44.903,93484,21893,23596,77712,101131
2025-04-14 12:38:44.907,93440,21887,23587,77705,101122
2025-04-14 12:38:44.920,93378,21891,23582,77692,101096
2025-04-14 12:38:44.927,93325,21886,23575,77684,101093
2025-04-14 12:38:44.940,93250,21880,23564,77649,101068
2025-04-14 12:38:44.947,93160,21862,23556,77601,101044
2025-04-14 12:38:44.965,93054,21852,23538,77541,100960
2025-04-14 12:38:44.967,92964,21832,23517,77485,100908
2025-04-14 12:38:44.979,92873,21811,23501,77416,100830
2025-04-14 12:38:44.988,92821,21808,23483,77363,100775
2025-04-14 12:38:45.000,92760,21793,23494,77335,100701
2025-04-14 12:38:45.007,92678,21794,23489,77311,100669
2025-04-14 12:38:45.029,92620,21781,23481,77243,100624
2025-04-14 12:38:45.032,92643,21749,23457,77149,100557
2025-04-14 12:38:45.040,92678,21723,23433,77065,100465
2025-04-14 12:38:45.052,92616,21703,23418,77002,100414
2025-04-14 12:38:45.060,92496,21687,23413,76937,100370
2025-04-14 12:38:45.072,92361,21674,23399,76841,100287
2025-04-14 12:38:45.093,92230,21655,23385,76741,100186
2025-04-14 12:38:45.094,92117,21640,23378,76676,100093
2025-04-14 12:38:45.100,92097,21620,23373,76608,100023
2025-04-14 12:38:45.111,92237,21604,23361,76598,99971
2025-04-14 12:38:45.119,92348,21583,23349,76589,99982
2025-04-14 12:38:45.131,92342,21571,23341,76575,99989
2025-04-14 12:38:45.139,92356,21556,23329,76566,99944
2025-04-14 12:38:45.155,92389,21545,23325,76593,99917
2025-04-14 12:38:45.159,92435,21538,23320,76600,99947
2025-04-14 12:38:45.171,92480,21546,23333,76629,99958
2025-04-14 12:38:45.179,92575,21555,23344,76683,100004
2025-04-14 12:38:45.192,92746,21572,23351,76741,100038
2025-04-14 12:38:45.199,92949,21578,23373,76804,100107
2025-04-14 12:38:45.220,93114,21594,23384,76884,100183
2025-04-14 12:38:45.221,93205,21603,23399,76939,100281
2025-04-14 12:38:45.232,93228,21608,23407,76973,100298
2025-04-14 12:38:45.239,93208,21621,23426,77022,100355
2025-04-14 12:38:45.252,93189,21635,23442,77076,100394
2025-04-14 12:38:45.259,93190,21654,23457,77126,100448
2025-04-14 12:38:45.284,93182,21666,23471,77172,100472
2025-04-14 12:38:45.286,93220,21685,23486,77204,100509
2025-04-14 12:38:45.291,93264,21691,23502,77253,100548
2025-04-14 12:38:45.300,93341,21703,23516,77299,100595
2025-04-14 12:38:45.312,93394,21722,23529,77349,100631
2025-04-14 12:38:45.319,93465,21733,23551,77409,100683
2025-04-14 12:38:45.331,93540,21748,23557,77462,100723
2025-04-14 12:38:45.348,93612,21765,23580,77502,100762
2025-04-14 12:38:45.351,93676,21777,23585,77541,100797
2025-04-14 12:38:45.354,93676,21777,23585,77541,100797
2025-04-14 12:38:45.363,93755,21796,23612,77595,100836
2025-04-14 12:38:45.371,93805,21806,23624,77622,100851
2025-04-14 12:38:45.383,93876,21817,23634,77661,100872
2025-04-14 12:38:45.392,93955,21831,23643,77719,100920
2025-04-14 12:38:45.412,94009,21840,23650,77735,100962
2025-04-14 12:38:45.413,94026,21844,23653,77746,100987
2025-04-14 12:38:45.424,94013,21839,23664,77723,101009
2025-04-14 12:38:45.432,93919,21842,23664,77699,100988
2025-04-14 12:38:45.443,93825,21840,23669,77626,100955
2025-04-14 12:38:45.451,93699,21824,23648,77484,100871
2025-04-14 12:38:45.478,93499,21786,23628,77290,100735
2025-04-14 12:38:45.480,93439,21762,23619,77294,100511
2025-04-14 12:38:45.483,93417,21763,23617,77361,100497
2025-04-14 12:38:47.701,82354,21917,23997,72246,87182
2025-04-14 12:38:47.714,91101,21854,23948,77080,100451
2025-04-14 12:38:47.715,91343,21814,23923,77025,100405
2025-04-14 12:38:47.717,91387,21825,23940,77062,100455
2025-04-14 12:38:47.717,91454,21852,23975,77107,100511
2025-04-14 12:38:47.718,91488,21924,24041,77252,100647
2025-04-14 12:38:47.719,91124,21971,24085,77185,100530
2025-04-14 12:38:47.726,91042,21963,24082,77126,100456
2025-04-14 12:38:47.738,91079,21935,24058,77006,100411
2025-04-14 12:38:47.747,91081,21921,24045,76928,100395
2025-04-14 12:38:47.758,91040,21910,24046,76922,100335
2025-04-14 12:38:47.778,90942,21896,24045,76891,100275
2025-04-14 12:38:47.779,90834,21870,24013,76752,100224
2025-04-14 12:38:47.786,90739,21822,23969,76599,100072
2025-04-14 12:38:47.798,90678,21778,23920,76490,99921
2025-04-14 12:38:47.807,90640,21743,23887,76404,99824
2025-04-14 12:38:47.818,90613,21707,23863,76346,99741
2025-04-14 12:38:47.826,90594,21692,23852,76306,99669
2025-04-14 12:38:47.840,90570,21673,23843,76290,99633
2025-04-14 12:38:47.850,90543,21654,23834,76212,99588
2025-04-14 12:38:47.867,90532,21630,23817,76154,99519
2025-04-14 12:38:47.871,90532,21630,23817,76154,99519
2025-04-14 12:38:47.871,90532,21630,23817,76154,99519
2025-04-14 12:38:47.874,90532,21630,23817,76154,99519
2025-04-14 12:38:47.878,90532,21630,23817,76154,99519
2025-04-14 12:38:47.879,90532,21630,23817,76154,99519
2025-04-14 12:38:47.882,90532,21630,23817,76154,99519
2025-04-14 12:38:47.886,90532,21630,23817,76154,99519
2025-04-14 12:38:47.888,90809,21584,23805,76505,99765
2025-04-14 12:38:47.903,90978,21607,23834,76656,99859
2025-04-14 12:38:47.906,91229,21643,23873,76817,100003
2025-04-14 12:38:47.919,91511,21691,23909,77020,100187
2025-04-14 12:38:47.926,91798,21733,23948,77199,100383
2025-04-14 12:38:47.938,92004,21775,23984,77354,100597
2025-04-14 12:38:47.946,92119,21813,24023,77465,100758
2025-04-14 12:38:47.966,92140,21853,24051,77572,100878
2025-04-14 12:38:47.968,92136,21883,24085,77636,100991
2025-04-14 12:38:47.978,92129,21904,24103,77695,101088
2025-04-14 12:38:47.987,92126,21930,24122,77711,101119
2025-04-14 12:38:47.998,92107,21943,24131,77712,101162
2025-04-14 12:38:48.006,92089,21943,24135,77667,101148
2025-04-14 12:38:48.029,92097,21943,24122,77627,101124
2025-04-14 12:38:48.031,92121,21935,24116,77569,101058
2025-04-14 12:38:48.038,92146,21924,24106,77514,101011
2025-04-14 12:38:48.046,92148,21906,24086,77453,100946
2025-04-14 12:38:48.058,92167,21889,24082,77419,100883
2025-04-14 12:38:48.067,92179,21878,24074,77420,100836
2025-04-14 12:38:48.093,92190,21874,24077,77475,100829
2025-04-14 12:38:48.094,92190,21874,24077,77475,100829
2025-04-14 12:38:48.095,92190,21874,24077,77475,100829
2025-04-14 12:38:48.096,92019,21887,24166,77772,101022
2025-04-14 12:38:48.098,91974,21889,24171,77844,101148
2025-04-14 12:38:48.106,91960,21896,24172,77867,101201
2025-04-14 12:38:48.118,91904,21893,24170,77871,101205
2025-04-14 12:38:48.130,91643,21895,24205,77833,101185
2025-04-14 12:38:48.138,91381,21886,24209,77726,101173
2025-04-14 12:38:48.156,91278,21862,24192,77580,101077
2025-04-14 12:38:48.158,91174,21823,24150,77416,100974
2025-04-14 12:38:48.171,91140,21796,24133,77321,100806
2025-04-14 12:38:48.178,91027,21780,24137,77310,100681
2025-04-14 12:38:48.190,90921,21775,24143,77294,100643
2025-04-14 12:38:48.198,90800,21769,24130,77255,100621
2025-04-14 12:38:48.220,90714,21750,24119,77183,100586
2025-04-14 12:38:48.222,90629,21737,24117,77137,100520
2025-04-14 12:38:48.230,90559,21722,24104,77100,100465
2025-04-14 12:38:48.238,90533,21705,24098,77073,100412
2025-04-14 12:38:48.250,90546,21702,24101,77075,100390
2025-04-14 12:38:48.259,90554,21702,24096,77075,100404
2025-04-14 12:38:48.283,91029,21698,24010,77039,100400
2025-04-14 12:38:48.285,91102,21705,24002,77041,100378
2025-04-14 12:38:48.286,91102,21705,24002,77041,100378
2025-04-14 12:38:48.291,91252,21711,23987,77048,100381
2025-04-14 12:38:48.298,91247,21717,23991,77066,100416
2025-04-14 12:38:48.310,91273,21721,24005,77085,100432
2025-04-14 12:38:48.318,91324,21731,24013,77106,100458
2025-04-14 12:38:48.331,91414,21745,24021,77149,100491
2025-04-14 12:38:48.345,91522,21757,24036,77177,100546
2025-04-14 12:38:48.351,91631,21764,24040,77192,100569
2025-04-14 12:38:48.358,91699,21777,24052,77199,100591
2025-04-14 12:38:48.371,91776,21783,24063,77213,100615
2025-04-14 12:38:48.378,91828,21795,24075,77234,100652
2025-04-14 12:38:48.391,91862,21810,24084,77238,100689
2025-04-14 12:38:48.410,91884,21818,24098,77258,100716
2025-04-14 12:38:48.412,91892,21825,24107,77282,100733
2025-04-14 12:38:48.418,91884,21841,24121,77317,100764
2025-04-14 12:38:48.430,91863,21861,24133,77353,100796
2025-04-14 12:38:48.438,91851,21869,24151,77381,100822
2025-04-14 12:38:48.450,91841,21888,24165,77407,100864
2025-04-14 12:38:48.473,91842,21902,24176,77426,100890
2025-04-14 12:38:48.474,91841,21915,24194,77456,100912
2025-04-14 12:38:48.482,91832,21932,24207,77468,100934
2025-04-14 12:38:48.490,91799,21948,24222,77461,100929
2025-04-14 12:38:48.502,91758,21960,24235,77444,100930
2025-04-14 12:38:48.510,91710,21970,24240,77407,100906
2025-04-14 12:38:48.522,91685,21961,24235,77391,100901
2025-04-14 12:38:48.538,91731,21959,24227,77369,100896
2025-04-14 12:38:48.542,91782,21949,24215,77337,100898
2025-04-14 12:38:48.550,91712,21945,24208,77285,100893
2025-04-14 12:38:48.562,91662,21936,24217,77265,100822
2025-04-14 12:38:48.570,91529,21944,24231,77252,100759
2025-04-14 12:38:48.582,91335,21942,24232,77172,100734
2025-04-14 12:38:48.601,91112,21918,24214,77026,100642
2025-04-14 12:38:48.602,90565,21883,24254,76892,100447
2025-04-14 12:38:48.611,90419,21843,24221,76768,100315
2025-04-14 12:38:48.622,90320,21807,24190,76692,100190
2025-04-14 12:38:48.630,90249,21774,24157,76619,100093
2025-04-14 12:38:48.642,90197,21737,24123,76546,100007
2025-04-14 12:38:48.665,90183,21684,24089,76451,99909
2025-04-14 12:38:48.666,90196,21638,24052,76392,99805
2025-04-14 12:38:48.671,90232,21601,24022,76372,99751
2025-04-14 12:38:48.682,90299,21573,23994,76391,99742
2025-04-14 12:38:48.690,90671,21534,23891,76388,99761
2025-04-14 12:38:48.702,90841,21493,23858,76453,99763
2025-04-14 12:38:48.711,90928,21459,23835,76527,99818
2025-04-14 12:38:48.729,91020,21429,23810,76566,99898
2025-04-14 12:38:48.730,91132,21408,23801,76649,99936
2025-04-14 12:38:48.743,91291,21394,23798,76768,100046
2025-04-14 12:38:48.754,91550,21397,23807,76904,100181
2025-04-14 12:38:48.762,91858,21415,23824,77060,100304
2025-04-14 12:38:48.775,92199,21449,23849,77230,100477
2025-04-14 12:38:48.794,92491,21484,23883,77375,100642
2025-04-14 12:38:48.795,92702,21519,23924,77513,100812
2025-04-14 12:38:48.803,92827,21560,23955,77605,100951
2025-04-14 12:38:48.814,92888,21595,23980,77673,101040
2025-04-14 12:38:48.822,92882,21633,24010,77740,101140
2025-04-14 12:38:48.835,92869,21664,24038,77799,101217
2025-04-14 12:38:48.842,92876,21694,24066,77815,101264
2025-04-14 12:38:48.863,92865,21719,24087,77838,101322
2025-04-14 12:38:48.864,92848,21739,24104,77856,101350
2025-04-14 12:38:48.874,92839,21759,24125,77860,101372
2025-04-14 12:38:48.883,92850,21778,24141,77840,101387
2025-04-14 12:38:48.895,92879,21800,24157,77822,101362
2025-04-14 12:38:48.903,92901,21815,24166,77793,101351
2025-04-14 12:38:48.927,92887,21829,24182,77776,101324
2025-04-14 12:38:48.929,92867,21844,24195,77772,101314
2025-04-14 12:38:48.934,92835,21861,24208,77770,101311
2025-04-14 12:38:48.942,92793,21881,24234,77792,101303
2025-04-14 12:38:48.954,92505,21901,24313,77866,101322
2025-04-14 12:38:48.963,92080,21920,24374,77890,101378
2025-04-14 12:38:48.974,91857,21930,24405,77904,101402
2025-04-14 12:38:48.991,91770,21930,24405,77903,101411
2025-04-14 12:38:48.994,91691,21934,24406,77903,101399
2025-04-14 12:38:49.002,91642,21933,24407,77859,101375
2025-04-14 12:38:49.014,91541,21926,24402,77748,101338
2025-04-14 12:38:49.022,91306,21909,24387,77572,101243
2025-04-14 12:38:49.034,91179,21881,24374,77455,101043
2025-04-14 12:38:49.056,91041,21864,24370,77445,100908
2025-04-14 12:38:49.057,90955,21853,24359,77402,100876
2025-04-14 12:38:49.062,90852,21844,24354,77363,100827
2025-04-14 12:38:49.074,90751,21839,24353,77343,100776
2025-04-14 12:38:49.086,90660,21829,24355,77314,100751
2025-04-14 12:38:49.087,90660,21829,24355,77314,100751
2025-04-14 12:38:49.094,90568,21788,24330,77213,100659
2025-04-14 12:38:49.118,90536,21772,24316,77176,100592
2025-04-14 12:38:49.120,90549,21766,24315,77163,100568
2025-04-14 12:38:49.126,90566,21762,24308,77166,100552
2025-04-14 12:38:49.134,90592,21758,24308,77181,100570
2025-04-14 12:38:49.146,90615,21761,24304,77186,100584
2025-04-14 12:38:49.154,90640,21760,24312,77217,100596
2025-04-14 12:38:49.166,90664,21766,24315,77240,100614
2025-04-14 12:38:49.184,90740,21774,24324,77293,100655
2025-04-14 12:38:49.187,90882,21786,24343,77375,100737
2025-04-14 12:38:49.194,91087,21810,24360,77465,100851
2025-04-14 12:38:49.206,91270,21824,24380,77557,100958
2025-04-14 12:38:49.214,91426,21842,24397,77662,101100
2025-04-14 12:38:49.226,91546,21863,24419,77717,101198
2025-04-14 12:38:49.248,91610,21879,24434,77764,101284
2025-04-14 12:38:49.249,91658,21894,24450,77801,101340
2025-04-14 12:38:49.253,91690,21903,24456,77824,101390
2025-04-14 12:38:49.265,91693,21912,24464,77853,101425
2025-04-14 12:38:49.274,91713,21916,24471,77879,101465
2025-04-14 12:38:49.286,91756,21913,24472,77917,101507
2025-04-14 12:38:49.294,91821,21921,24481,77953,101541
2025-04-14 12:38:49.310,91866,21920,24479,77982,101583
2025-04-14 12:38:49.314,91912,21923,24489,78020,101640
2025-04-14 12:38:49.326,91944,21926,24486,78034,101676
2025-04-14 12:38:49.333,91929,21931,24489,78045,101706
2025-04-14 12:38:49.346,91899,21941,24495,78017,101706
2025-04-14 12:38:49.354,91817,21934,24501,77994,101688
2025-04-14 12:38:49.374,91748,21931,24499,77931,101650
2025-04-14 12:38:49.375,91654,21924,24493,77870,101604
2025-04-14 12:38:49.386,91593,21917,24484,77827,101534
2025-04-14 12:38:49.393,91589,21907,24470,77778,101494
2025-04-14 12:38:49.406,91653,21896,24460,77736,101483
2025-04-14 12:38:49.418,91632,21892,24445,77688,101449
2025-04-14 12:38:49.437,91591,21890,24454,77654,101402
2025-04-14 12:38:49.439,91549,21888,24466,77628,101343
2025-04-14 12:38:49.446,91439,21886,24464,77576,101308
2025-04-14 12:38:49.458,91309,21862,24446,77457,101253
2025-04-14 12:38:49.466,91207,21828,24412,77358,101125
2025-04-14 12:38:49.477,91145,21802,24381,77273,101016
2025-04-14 12:38:49.486,91077,21787,24354,77198,100932
2025-04-14 12:38:49.501,91012,21762,24346,77120,100843
2025-04-14 12:38:49.507,90961,21743,24329,77072,100746
2025-04-14 12:38:49.517,90930,21729,24320,76990,100683
2025-04-14 12:38:49.525,90922,21707,24303,76905,100598
2025-04-14 12:38:49.537,90913,21684,24288,76849,100532
2025-04-14 12:38:49.546,90935,21666,24255,76825,100477
2025-04-14 12:38:49.564,91517,21637,24136,76761,100431
2025-04-14 12:38:49.566,91505,21614,24109,76752,100343
2025-04-14 12:38:49.578,91507,21593,24087,76758,100353
2025-04-14 12:38:49.586,91559,21571,24077,76787,100338
2025-04-14 12:38:49.598,91678,21565,24067,76829,100377
2025-04-14 12:38:49.606,91878,21576,24082,76928,100431
2025-04-14 12:38:49.629,92175,21594,24104,77075,100543
2025-04-14 12:38:49.631,92516,21632,24138,77248,100697
2025-04-14 12:38:49.638,92821,21679,24180,77420,100885
2025-04-14 12:38:49.646,92951,21729,24224,77556,101071
2025-04-14 12:38:49.658,92906,21773,24258,77661,101237
2025-04-14 12:38:49.666,92799,21805,24288,77759,101390
2025-04-14 12:38:49.678,92708,21839,24314,77823,101517
2025-04-14 12:38:49.694,92606,21869,24341,77854,101593
2025-04-14 12:38:49.698,92451,21894,24359,77863,101624
2025-04-14 12:38:49.706,92294,21907,24380,77825,101638
2025-04-14 12:38:49.718,92160,21919,24382,77779,101599
2025-04-14 12:38:49.726,92043,21924,24388,77720,101547
2025-04-14 12:38:49.738,91929,21932,24399,77668,101493
2025-04-14 12:38:49.757,91861,21935,24399,77624,101449
2025-04-14 12:38:49.758,91797,21943,24406,77596,101408
2025-04-14 12:38:49.771,91737,21951,24419,77561,101355
2025-04-14 12:38:49.778,91680,21962,24426,77550,101322
2025-04-14 12:38:49.790,91625,21977,24437,77557,101298
2025-04-14 12:38:49.797,91578,21994,24458,77603,101302
2025-04-14 12:38:49.820,91546,22018,24480,77673,101347
2025-04-14 12:38:49.821,91468,22044,24533,77771,101391
2025-04-14 12:38:49.830,90935,22068,24641,77873,101481
2025-04-14 12:38:49.837,90823,22082,24676,77926,101563
2025-04-14 12:38:49.850,90723,22098,24690,77949,101595
2025-04-14 12:38:49.857,90674,22110,24692,77958,101612
2025-04-14 12:38:49.885,90648,22106,24693,77938,101608
2025-04-14 12:38:49.886,90615,22103,24687,77824,101580
2025-04-14 12:38:49.889,90632,22073,24676,77736,101508
2025-04-14 12:38:49.898,90488,22054,24668,77746,101447
2025-04-14 12:38:49.909,90403,22025,24641,77721,101436
2025-04-14 12:38:49.918,90368,21999,24612,77675,101400
2025-04-14 12:38:49.930,90313,21979,24597,77673,101347
2025-04-14 12:38:49.949,90289,21968,24579,77673,101333
2025-04-14 12:38:49.950,90295,21943,24570,77658,101317
2025-04-14 12:38:49.958,90259,21924,24549,77634,101285
2025-04-14 12:38:49.969,90246,21906,24540,77613,101249
2025-04-14 12:38:49.978,90231,21886,24532,77581,101227
2025-04-14 12:38:49.990,90233,21872,24517,77568,101193
2025-04-14 12:38:49.997,90276,21862,24508,77587,101198
2025-04-14 12:38:50.013,90328,21855,24507,77589,101207
2025-04-14 12:38:50.018,90361,21848,24494,77586,101213
2025-04-14 12:38:50.030,90421,21841,24494,77599,101209
2025-04-14 12:38:50.037,90507,21836,24485,77588,101222
2025-04-14 12:38:50.049,90607,21834,24481,77593,101241
2025-04-14 12:38:50.058,90682,21835,24484,77592,101257
2025-04-14 12:38:50.078,90765,21840,24488,77621,101270
2025-04-14 12:38:50.081,90856,21845,24497,77666,101322
2025-04-14 12:38:50.089,90928,21858,24507,77723,101352
2025-04-14 12:38:50.094,90928,21858,24507,77723,101352
2025-04-14 12:38:50.102,90989,21885,24533,77806,101445
2025-04-14 12:38:50.110,90990,21898,24544,77841,101487
2025-04-14 12:38:50.121,90981,21909,24559,77883,101516
2025-04-14 12:38:50.141,90991,21932,24577,77908,101535
2025-04-14 12:38:50.143,91000,21949,24593,77950,101553
2025-04-14 12:38:50.149,91016,21962,24604,77972,101581
2025-04-14 12:38:50.162,91034,21982,24622,78028,101600
2025-04-14 12:38:50.169,91075,22002,24642,78049,101636
2025-04-14 12:38:50.182,91109,22020,24657,78077,101661
2025-04-14 12:38:50.189,91132,22029,24665,78101,101689
2025-04-14 12:38:50.205,91151,22047,24674,78129,101709
2025-04-14 12:38:50.210,91175,22060,24691,78137,101728
2025-04-14 12:38:50.221,91157,22071,24707,78144,101751
2025-04-14 12:38:50.229,91137,22089,24721,78158,101744
2025-04-14 12:38:50.242,91094,22094,24723,78161,101756
2025-04-14 12:38:50.249,91056,22098,24728,78136,101734
2025-04-14 12:38:50.269,91052,22093,24717,78110,101739
2025-04-14 12:38:50.271,91116,22069,24708,78043,101735
2025-04-14 12:38:50.282,91136,22060,24698,77984,101695
2025-04-14 12:38:50.290,91083,22057,24698,77953,101655
2025-04-14 12:38:50.302,90980,22055,24714,77929,101599
2025-04-14 12:38:50.310,90806,22060,24719,77862,101542
2025-04-14 12:38:50.334,90608,22030,24700,77718,101448
2025-04-14 12:38:50.335,90478,21997,24668,77579,101277
2025-04-14 12:38:50.341,90394,21967,24643,77465,101118
2025-04-14 12:38:50.350,90285,21942,24620,77364,101017
2025-04-14 12:38:50.362,90184,21917,24598,77280,100905
2025-04-14 12:38:50.369,90096,21895,24580,77201,100809
2025-04-14 12:38:50.382,90028,21861,24549,77099,100718
2025-04-14 12:38:50.398,89982,21833,24525,77025,100612
2025-04-14 12:38:50.402,89981,21802,24507,76963,100528
2025-04-14 12:38:50.414,90016,21785,24491,76968,100471
2025-04-14 12:38:50.421,90062,21775,24476,77012,100495
2025-04-14 12:38:50.434,90151,21751,24455,77055,100531
2025-04-14 12:38:50.441,90241,21732,24429,77102,100587
2025-04-14 12:38:50.463,90753,21703,24323,77118,100642
2025-04-14 12:38:50.464,90985,21679,24302,77187,100660
2025-04-14 12:38:50.473,91158,21680,24303,77296,100736
2025-04-14 12:38:50.482,91369,21689,24310,77440,100858
2025-04-14 12:38:50.494,91639,21707,24328,77594,101008
2025-04-14 12:38:50.502,91974,21727,24349,77800,101189
2025-04-14 12:38:50.526,92330,21764,24372,78035,101421
2025-04-14 12:38:50.528,92630,21794,24402,78253,101651
2025-04-14 12:38:50.534,92879,21829,24425,78438,101873
2025-04-14 12:38:50.541,93054,21857,24450,78586,102064
2025-04-14 12:38:50.554,93128,21885,24469,78696,102211
2025-04-14 12:38:50.561,93142,21898,24485,78776,102337
2025-04-14 12:38:50.574,93132,21919,24496,78820,102425
2025-04-14 12:38:50.590,93111,21936,24506,78843,102482
2025-04-14 12:38:50.594,93056,21945,24515,78847,102504
2025-04-14 12:38:50.601,92996,21957,24521,78832,102511
2025-04-14 12:38:50.614,92927,21961,24522,78788,102507
2025-04-14 12:38:50.622,92854,21954,24524,78714,102452
2025-04-14 12:38:50.633,92781,21946,24516,78623,102377
2025-04-14 12:38:50.654,92718,21949,24517,78561,102278
2025-04-14 12:38:50.655,92673,21952,24520,78499,102232
2025-04-14 12:38:50.661,92517,21958,24558,78462,102160
2025-04-14 12:38:50.673,92086,21968,24621,78419,102118
2025-04-14 12:38:50.682,91993,21967,24628,78348,102059
2025-04-14 12:38:50.693,91881,21973,24631,78282,101979
2025-04-14 12:38:50.702,91774,21972,24627,78205,101898
2025-04-14 12:38:50.718,91686,21958,24622,78134,101813
2025-04-14 12:38:50.722,91633,21964,24624,78091,101731
2025-04-14 12:38:50.734,91593,21959,24628,78036,101665
2025-04-14 12:38:50.741,91558,21968,24638,77995,101635
2025-04-14 12:38:50.754,91467,21971,24646,77945,101594
2025-04-14 12:38:50.765,91357,21962,24646,77954,101542
2025-04-14 12:38:50.781,91271,21954,24635,77940,101533
2025-04-14 12:38:50.786,91188,21956,24637,77939,101490
2025-04-14 12:38:50.793,91100,21951,24641,77920,101479
2025-04-14 12:38:50.805,91041,21940,24639,77913,101462
2025-04-14 12:38:50.813,90989,21926,24631,77854,101418
2025-04-14 12:38:50.825,90962,21921,24622,77806,101370
2025-04-14 12:38:50.845,90935,21900,24616,77768,101327
2025-04-14 12:38:50.846,90935,21893,24599,77726,101289
2025-04-14 12:38:50.854,90951,21877,24588,77708,101242
2025-04-14 12:38:50.865,90997,21865,24579,77690,101221
2025-04-14 12:38:50.874,91049,21853,24560,77679,101212
2025-04-14 12:38:50.885,91363,21836,24487,77652,101219
2025-04-14 12:38:50.893,91489,21832,24476,77706,101209
2025-04-14 12:38:50.908,91601,21831,24475,77764,101253
2025-04-14 12:38:50.914,91756,21847,24485,77853,101319
2025-04-14 12:38:50.925,91986,21863,24516,77963,101429
2025-04-14 12:38:50.933,92233,21883,24531,78060,101556
2025-04-14 12:38:50.945,92424,21910,24556,78163,101680
2025-04-14 12:38:50.953,92551,21943,24578,78250,101815
2025-04-14 12:38:50.973,92603,21965,24607,78326,101935
2025-04-14 12:38:50.974,92619,21994,24631,78363,102013
2025-04-14 12:38:50.986,92601,22015,24646,78402,102074
2025-04-14 12:38:50.994,92553,22035,24675,78433,102123
2025-04-14 12:38:51.005,92500,22062,24693,78454,102168
2025-04-14 12:38:51.014,92497,22077,24714,78462,102185
2025-04-14 12:38:51.037,92507,22102,24732,78486,102205
2025-04-14 12:38:51.039,92534,22124,24754,78501,102222
2025-04-14 12:38:51.046,92541,22145,24769,78493,102244
2025-04-14 12:38:51.053,92581,22157,24791,78481,102264
2025-04-14 12:38:51.066,92626,22169,24797,78460,102267
2025-04-14 12:38:51.077,92659,22180,24799,78424,102225
2025-04-14 12:38:51.085,92664,22187,24808,78372,102198
2025-04-14 12:38:51.101,92650,22200,24819,78340,102134
2025-04-14 12:38:51.102,92650,22200,24819,78340,102134
2025-04-14 12:38:51.105,92530,22223,24838,78271,102060
2025-04-14 12:38:51.117,92458,22220,24833,78218,101990
2025-04-14 12:38:51.125,92422,22203,24822,78170,101926
2025-04-14 12:38:51.134,92422,22203,24822,78170,101926
2025-04-14 12:38:51.145,92426,22186,24812,78114,101860
2025-04-14 12:38:51.166,92743,22157,24728,78029,101823
2025-04-14 12:38:51.168,92654,22137,24712,77967,101749
2025-04-14 12:38:51.178,92522,22125,24713,77963,101653
2025-04-14 12:38:51.185,92354,22103,24701,77884,101610
2025-04-14 12:38:51.198,92178,22057,24659,77729,101516
2025-04-14 12:38:51.206,92041,21999,24610,77568,101342
2025-04-14 12:38:51.229,91981,21956,24557,77424,101164
2025-04-14 12:38:51.231,91867,21917,24529,77305,101023
2025-04-14 12:38:51.237,91752,21880,24495,77172,100890
2025-04-14 12:38:51.246,91624,21847,24467,77046,100761
2025-04-14 12:38:51.257,91506,21816,24443,76933,100615
2025-04-14 12:38:51.265,91439,21779,24417,76838,100488
2025-04-14 12:38:51.277,91434,21757,24397,76779,100412
2025-04-14 12:38:51.294,91458,21749,24391,76760,100346
2025-04-14 12:38:51.297,91489,21745,24396,76787,100332
2025-04-14 12:38:51.301,91489,21745,24396,76787,100332
2025-04-14 12:38:51.305,91590,21728,24395,76858,100385
2025-04-14 12:38:51.318,91698,21730,24393,76928,100458
2025-04-14 12:38:51.326,91823,21728,24389,77015,100523
2025-04-14 12:38:51.337,91993,21737,24395,77117,100655
2025-04-14 12:38:51.362,92221,21749,24402,77239,100769
2025-04-14 12:38:51.364,92479,21772,24420,77416,100941
2025-04-14 12:38:51.366,92700,21800,24441,77570,101130
2025-04-14 12:38:51.378,92889,21827,24471,77766,101346
2025-04-14 12:38:51.389,93036,21861,24505,77919,101540
2025-04-14 12:38:51.398,93136,21895,24534,78048,101723
2025-04-14 12:38:51.409,93193,21927,24560,78148,101869
2025-04-14 12:38:51.429,93237,21961,24591,78233,101997
2025-04-14 12:38:51.430,93272,21990,24620,78311,102086
2025-04-14 12:38:51.438,93304,22017,24640,78361,102172
2025-04-14 12:38:51.449,93327,22052,24670,78409,102220
2025-04-14 12:38:51.458,93320,22070,24686,78439,102276
2025-04-14 12:38:51.469,93304,22088,24701,78452,102295
2025-04-14 12:38:51.477,93315,22103,24710,78465,102302
2025-04-14 12:38:51.494,93306,22111,24717,78430,102286
2025-04-14 12:38:51.497,93285,22114,24718,78394,102263
2025-04-14 12:38:51.509,93275,22119,24721,78357,102226
2025-04-14 12:38:51.517,93270,22119,24717,78281,102167
2025-04-14 12:38:51.530,93248,22120,24718,78231,102092
2025-04-14 12:38:51.537,93215,22120,24716,78170,102044
2025-04-14 12:38:51.558,93149,22119,24709,78100,101958
2025-04-14 12:38:51.560,93079,22114,24703,78053,101884
2025-04-14 12:38:51.569,93036,22104,24695,77967,101811
2025-04-14 12:38:51.577,93015,22096,24686,77880,101732
2025-04-14 12:38:51.590,93040,22083,24678,77795,101666
2025-04-14 12:38:51.597,93009,22065,24665,77656,101572
2025-04-14 12:38:51.623,92862,22055,24655,77526,101434
2025-04-14 12:38:51.624,92744,22044,24667,77470,101312
2025-04-14 12:38:51.629,92630,22033,24659,77436,101226
2025-04-14 12:38:51.638,92524,22018,24653,77370,101162
2025-04-14 12:38:51.649,92460,22021,24657,77336,101096
2025-04-14 12:38:51.657,92366,22023,24664,77320,101062
2025-04-14 12:38:51.669,92289,22024,24665,77299,101054
2025-04-14 12:38:51.687,92226,22019,24659,77256,101025
2025-04-14 12:38:51.690,92180,22015,24662,77218,100983
2025-04-14 12:38:51.701,92146,22010,24655,77172,100934
2025-04-14 12:38:51.709,92166,22003,24646,77119,100876
2025-04-14 12:38:51.717,92182,22007,24648,77111,100855
2025-04-14 12:38:51.729,92172,22007,24645,77099,100878
2025-04-14 12:38:51.752,92183,21997,24641,77073,100851
2025-04-14 12:38:51.753,92177,21978,24624,77041,100855
2025-04-14 12:38:51.761,92160,21962,24607,77028,100812
2025-04-14 12:38:51.768,92167,21938,24591,77027,100803
2025-04-14 12:38:51.782,92229,21922,24583,77039,100803
2025-04-14 12:38:51.789,92336,21909,24568,77080,100830
2025-04-14 12:38:51.801,92465,21905,24569,77132,100886
2025-04-14 12:38:51.818,92567,21906,24574,77206,100982
2025-04-14 12:38:51.821,92615,21909,24578,77270,101077
2025-04-14 12:38:51.829,92634,21920,24586,77335,101165
2025-04-14 12:38:51.842,92593,21921,24593,77371,101237
2025-04-14 12:38:51.849,92521,21928,24605,77438,101301
2025-04-14 12:38:51.862,92409,21944,24611,77487,101367
2025-04-14 12:38:51.883,92311,21951,24623,77517,101422
2025-04-14 12:38:51.885,92261,21966,24631,77547,101455
2025-04-14 12:38:51.888,92218,21974,24645,77578,101496
2025-04-14 12:38:51.901,92180,21996,24659,77613,101536
2025-04-14 12:38:51.909,92140,22012,24671,77657,101581
2025-04-14 12:38:51.922,92095,22025,24684,77688,101625
2025-04-14 12:38:51.929,92061,22043,24694,77695,101645
2025-04-14 12:38:51.949,92016,22055,24705,77700,101660
2025-04-14 12:38:51.950,91939,22072,24722,77702,101649
2025-04-14 12:38:51.961,91841,22093,24743,77708,101665
2025-04-14 12:38:51.969,91740,22102,24746,77690,101632
2025-04-14 12:38:51.981,91651,22109,24751,77672,101601
2025-04-14 12:38:51.989,91608,22114,24753,77680,101568
2025-04-14 12:38:52.013,91653,22110,24755,77675,101574
2025-04-14 12:38:52.014,91684,22116,24749,77672,101586
2025-04-14 12:38:52.022,91621,22102,24747,77631,101602
2025-04-14 12:38:52.029,91554,22112,24752,77640,101542
2025-04-14 12:38:52.041,91421,22122,24771,77660,101545
2025-04-14 12:38:52.054,91229,22119,24772,77613,101546
2025-04-14 12:38:52.062,91042,22094,24749,77503,101481
2025-04-14 12:38:52.079,90914,22056,24711,77383,101345
2025-04-14 12:38:52.081,90847,22031,24685,77308,101218
2025-04-14 12:38:52.093,90767,22008,24666,77234,101124
2025-04-14 12:38:52.101,90664,21995,24655,77191,101064
2025-04-14 12:38:52.104,90664,21995,24655,77191,101064
2025-04-14 12:38:52.114,90462,21953,24637,77026,100910
2025-04-14 12:38:52.121,90435,21933,24621,76973,100844
2025-04-14 12:38:52.145,90433,21912,24607,76922,100764
2025-04-14 12:38:52.147,90410,21903,24597,76901,100737
2025-04-14 12:38:52.153,90402,21907,24608,76949,100710
2025-04-14 12:38:52.162,90392,21909,24608,77006,100776
2025-04-14 12:38:52.173,90424,21901,24598,77022,100810
2025-04-14 12:38:52.181,90457,21895,24586,77050,100861
2025-04-14 12:38:52.193,90504,21888,24581,77102,100894
2025-04-14 12:38:52.209,90595,21889,24577,77140,100940
2025-04-14 12:38:52.213,90751,21883,24576,77222,101020
2025-04-14 12:38:52.221,90960,21892,24585,77338,101127
2025-04-14 12:38:52.232,91187,21904,24598,77458,101257
2025-04-14 12:38:52.241,91369,21916,24612,77583,101410
2025-04-14 12:38:52.253,91450,21941,24629,77705,101567
2025-04-14 12:38:52.274,91496,21956,24656,77805,101707
2025-04-14 12:38:52.275,91484,21980,24674,77902,101807
2025-04-14 12:38:52.280,91448,21998,24699,77950,101902
2025-04-14 12:38:52.293,91405,22018,24712,77963,101946
2025-04-14 12:38:52.300,91358,22033,24725,77973,101942
2025-04-14 12:38:52.313,91334,22046,24738,77971,101937
2025-04-14 12:38:52.322,91354,22055,24742,77952,101926
2025-04-14 12:38:52.337,91360,22057,24749,77918,101901
2025-04-14 12:38:52.341,91378,22052,24738,77872,101878
2025-04-14 12:38:52.353,91437,22047,24731,77832,101815
2025-04-14 12:38:52.361,91515,22037,24722,77784,101782
2025-04-14 12:38:52.372,91564,22031,24714,77750,101719
2025-04-14 12:38:52.385,91585,22020,24701,77737,101667
2025-04-14 12:38:52.400,91582,22014,24698,77721,101635
2025-04-14 12:38:52.405,91572,22002,24687,77729,101601
2025-04-14 12:38:52.414,91554,21990,24678,77714,101584
2025-04-14 12:38:52.425,91331,21980,24727,77745,101554
2025-04-14 12:38:52.433,91044,21967,24748,77753,101569
2025-04-14 12:38:52.445,91002,21955,24733,77737,101567
2025-04-14 12:38:52.465,90975,21936,24720,77713,101527
2025-04-14 12:38:52.466,90911,21927,24728,77698,101520
2025-04-14 12:38:52.473,90645,21913,24758,77623,101498
2025-04-14 12:38:52.484,90477,21882,24740,77511,101433
2025-04-14 12:38:52.493,90328,21851,24721,77492,101290
2025-04-14 12:38:52.505,90214,21838,24705,77488,101268
2025-04-14 12:38:52.512,90111,21818,24692,77460,101251
2025-04-14 12:38:52.530,90045,21806,24680,77449,101210
2025-04-14 12:38:52.533,90015,21789,24664,77411,101183
2025-04-14 12:38:52.545,89970,21776,24649,77356,101146
2025-04-14 12:38:52.552,89949,21750,24625,77287,101093
2025-04-14 12:38:52.565,89924,21732,24610,77230,101025
2025-04-14 12:38:52.573,89933,21721,24597,77219,100993
2025-04-14 12:38:52.593,89961,21710,24590,77211,100977
2025-04-14 12:38:52.595,90006,21705,24578,77218,100991
2025-04-14 12:38:52.605,90248,21696,24531,77226,100982
2025-04-14 12:38:52.613,90358,21696,24524,77273,100994
2025-04-14 12:38:52.625,90437,21702,24527,77336,101080
2025-04-14 12:38:52.633,90437,21702,24527,77336,101080
2025-04-14 12:38:52.658,90578,21709,24534,77403,101160
2025-04-14 12:38:52.659,90742,21722,24548,77488,101240
2025-04-14 12:38:52.664,90829,21725,24561,77566,101343
2025-04-14 12:38:52.673,90878,21744,24572,77608,101443
2025-04-14 12:38:52.685,90887,21756,24587,77643,101509
2025-04-14 12:38:52.692,90886,21766,24594,77669,101559
2025-04-14 12:38:52.705,90870,21773,24610,77675,101597
2025-04-14 12:38:52.721,90870,21773,24610,77675,101597
2025-04-14 12:38:52.722,90830,21791,24630,77702,101616
2025-04-14 12:38:52.725,90812,21802,24643,77712,101642
2025-04-14 12:38:52.737,90829,21820,24654,77745,101642
2025-04-14 12:38:52.744,90853,21828,24658,77775,101672
2025-04-14 12:38:52.756,90898,21842,24670,77807,101711
2025-04-14 12:38:52.765,90951,21860,24692,77851,101744
2025-04-14 12:38:52.786,91007,21877,24700,77881,101807
2025-04-14 12:38:52.787,91046,21894,24713,77923,101833
2025-04-14 12:38:52.797,91073,21910,24721,77927,101857
2025-04-14 12:38:52.805,91068,21922,24730,77916,101857
2025-04-14 12:38:52.817,91055,21934,24738,77911,101849
2025-04-14 12:38:52.825,91010,21941,24740,77872,101829
2025-04-14 12:38:52.849,90941,21949,24747,77840,101780
2025-04-14 12:38:52.850,90882,21943,24749,77804,101742
2025-04-14 12:38:52.856,90873,21932,24739,77761,101697
2025-04-14 12:38:52.864,90973,21918,24721,77706,101659
2025-04-14 12:38:52.877,91082,21898,24706,77618,101619
2025-04-14 12:38:52.885,91074,21883,24694,77578,101561
2025-04-14 12:38:52.897,91092,21882,24708,77622,101519
2025-04-14 12:38:52.914,91014,21890,24714,77604,101530
2025-04-14 12:38:52.917,90598,21876,24754,77524,101522
2025-04-14 12:38:52.925,90487,21846,24736,77423,101426
2025-04-14 12:38:52.937,90390,21821,24714,77332,101272
2025-04-14 12:38:52.944,90320,21811,24701,77300,101187
2025-04-14 12:38:52.957,90242,21807,24695,77265,101151
2025-04-14 12:38:52.978,90145,21796,24680,77219,101102
2025-04-14 12:38:52.979,90035,21768,24660,77153,101037
2025-04-14 12:38:52.985,89912,21739,24639,77036,100956
2025-04-14 12:38:52.996,89807,21704,24615,76948,100842
2025-04-14 12:38:53.005,89728,21673,24592,76894,100739
2025-04-14 12:38:53.016,89700,21654,24577,76897,100687
2025-04-14 12:38:53.025,89707,21634,24559,76892,100674
2025-04-14 12:38:53.041,89707,21610,24534,76875,100671
2025-04-14 12:38:53.050,89730,21583,24514,76868,100656
2025-04-14 12:38:53.057,90032,21553,24417,76830,100650
2025-04-14 12:38:53.070,90282,21526,24363,76849,100619
2025-04-14 12:38:53.076,90469,21505,24323,76858,100663
2025-04-14 12:38:53.089,90648,21497,24315,76924,100655
2025-04-14 12:38:53.104,90819,21498,24312,77018,100758
2025-04-14 12:38:53.109,91008,21505,24324,77129,100866
2025-04-14 12:38:53.113,91008,21505,24324,77129,100866
2025-04-14 12:38:53.116,91266,21535,24351,77380,101173
2025-04-14 12:38:53.128,91337,21551,24361,77514,101301
2025-04-14 12:38:53.137,91402,21568,24387,77645,101466
2025-04-14 12:38:53.148,91460,21593,24408,77776,101621
2025-04-14 12:38:53.168,91493,21609,24424,77897,101760
2025-04-14 12:38:53.169,91543,21628,24439,78005,101878
2025-04-14 12:38:53.177,91597,21642,24445,78084,101999
2025-04-14 12:38:53.188,91693,21661,24454,78156,102076
2025-04-14 12:38:53.197,91788,21676,24468,78206,102131
2025-04-14 12:38:53.209,91859,21695,24472,78212,102205
2025-04-14 12:38:53.217,91914,21707,24480,78195,102205
2025-04-14 12:38:53.234,91930,21721,24486,78159,102193
2025-04-14 12:38:53.237,91899,21733,24488,78108,102159
2025-04-14 12:38:53.249,91815,21748,24499,78047,102105
2025-04-14 12:38:53.256,91437,21759,24579,78018,102044
2025-04-14 12:38:53.269,91348,21763,24582,77941,101988
2025-04-14 12:38:53.276,91301,21775,24591,77896,101928
2025-04-14 12:38:53.298,91246,21784,24596,77878,101888
2025-04-14 12:38:53.299,91176,21798,24608,77873,101842
2025-04-14 12:38:53.308,91098,21805,24620,77849,101806
2025-04-14 12:38:53.317,90862,21816,24667,77863,101800
2025-04-14 12:38:53.329,90656,21827,24682,77818,101793
2025-04-14 12:38:53.336,90512,21827,24688,77756,101743
2025-04-14 12:38:53.362,90434,21817,24671,77664,101661
2025-04-14 12:38:53.364,90317,21793,24652,77525,101579
2025-04-14 12:38:53.369,90262,21779,24649,77539,101441
2025-04-14 12:38:53.381,90172,21786,24665,77608,101455
2025-04-14 12:38:53.388,90046,21791,24669,77599,101497
2025-04-14 12:38:53.400,89952,21791,24661,77569,101480
2025-04-14 12:38:53.409,89867,21776,24654,77530,101458
2025-04-14 12:38:53.428,89803,21761,24647,77482,101386
