Timestamp,PPG1,PPG2,PPG3,PPG4,PPG5
2025-04-14 12:31:02.275,99380,21224,22660,80854,105321
2025-04-14 12:31:02.326,99375,21224,22658,80844,105326
2025-04-14 12:31:02.329,99369,21227,22659,80851,105332
2025-04-14 12:31:02.330,99364,21229,22665,80838,105322
2025-04-14 12:31:02.331,99343,21234,22664,80847,105322
2025-04-14 12:31:02.333,99345,21233,22662,80840,105317
2025-04-14 12:31:02.335,99348,21236,22673,80842,105324
2025-04-14 12:31:02.337,99338,21235,22674,80848,105330
2025-04-14 12:31:02.338,99349,21236,22671,80852,105324
2025-04-14 12:31:02.340,99336,21238,22676,80839,105320
2025-04-14 12:31:02.342,99320,21241,22679,80847,105332
2025-04-14 12:31:02.344,99323,21239,22680,80851,105313
2025-04-14 12:31:02.346,99310,21241,22679,80847,105319
2025-04-14 12:31:02.349,99295,21240,22683,80827,105306
2025-04-14 12:31:02.350,99271,21241,22679,80820,105304
2025-04-14 12:31:02.351,99234,21237,22680,80802,105292
2025-04-14 12:31:02.353,99197,21239,22680,80791,105267
2025-04-14 12:31:02.355,99197,21239,22680,80791,105267
2025-04-14 12:31:02.356,99137,21238,22681,80750,105216
2025-04-14 12:31:02.358,99123,21231,22677,80741,105199
2025-04-14 12:31:02.361,99114,21233,22686,80728,105180
2025-04-14 12:31:02.362,99109,21225,22677,80723,105178
2025-04-14 12:31:02.364,99113,21233,22676,80729,105160
2025-04-14 12:31:02.366,99125,21225,22679,80720,105180
2025-04-14 12:31:02.369,99139,21219,22673,80740,105171
2025-04-14 12:31:02.776,99139,21210,22668,80726,105180
2025-04-14 12:31:02.778,99143,21191,22649,80719,105174
2025-04-14 12:31:02.779,99136,21178,22637,80719,105179
2025-04-14 12:31:02.780,99135,21158,22630,80697,105172
2025-04-14 12:31:02.781,99112,21126,22609,80683,105139
2025-04-14 12:31:02.783,99100,21105,22586,80658,105130
2025-04-14 12:31:02.784,99084,21085,22571,80637,105104
2025-04-14 12:31:02.785,99056,21063,22564,80629,105094
2025-04-14 12:31:02.787,99036,21050,22546,80606,105072
2025-04-14 12:31:02.788,99035,21036,22537,80597,105061
2025-04-14 12:31:02.789,99039,21027,22535,80604,105062
2025-04-14 12:31:02.790,99058,21023,22534,80621,105067
2025-04-14 12:31:02.791,99105,21020,22539,80655,105103
2025-04-14 12:31:02.792,99153,21027,22546,80703,105146
2025-04-14 12:31:02.793,99187,21036,22555,80754,105174
2025-04-14 12:31:02.794,99213,21045,22559,80797,105228
2025-04-14 12:31:02.795,99229,21054,22574,80831,105279
2025-04-14 12:31:02.796,99228,21070,22587,80864,105303
2025-04-14 12:31:02.798,99245,21077,22586,80885,105331
2025-04-14 12:31:02.799,99248,21088,22602,80906,105355
2025-04-14 12:31:02.800,99249,21096,22604,80926,105376
2025-04-14 12:31:02.801,99270,21107,22617,80944,105382
2025-04-14 12:31:02.802,99283,21115,22626,80953,105397
2025-04-14 12:31:02.802,99277,21131,22635,80959,105413
2025-04-14 12:31:02.803,99270,21136,22639,80968,105424
2025-04-14 12:31:02.804,99287,21138,22642,80975,105417
2025-04-14 12:31:02.805,99282,21145,22651,80973,105438
2025-04-14 12:31:02.805,99285,21156,22657,80995,105447
2025-04-14 12:31:02.806,99271,21160,22662,81007,105450
2025-04-14 12:31:02.807,99271,21164,22670,81020,105465
2025-04-14 12:31:02.808,99259,21167,22666,81023,105472
2025-04-14 12:31:02.810,99252,21163,22661,81013,105505
2025-04-14 12:31:02.812,99254,21145,22646,81004,105494
2025-04-14 12:31:02.814,99263,21122,22620,80975,105468
2025-04-14 12:31:02.815,99264,21087,22595,80952,105424
2025-04-14 12:31:02.816,99270,21069,22573,80937,105381
2025-04-14 12:31:02.817,99279,21050,22555,80921,105345
2025-04-14 12:31:02.819,99262,21043,22551,80929,105337
2025-04-14 12:31:02.820,99230,21026,22538,80941,105331
2025-04-14 12:31:02.822,99201,21013,22527,80940,105326
2025-04-14 12:31:02.849,99192,21001,22520,80970,105326
2025-04-14 12:31:02.851,99177,20997,22520,81025,105346
2025-04-14 12:31:02.853,99182,21006,22520,81086,105377
2025-04-14 12:31:02.855,99174,21014,22527,81155,105453
2025-04-14 12:31:02.858,99176,21021,22536,81239,105533
2025-04-14 12:31:02.860,99184,21030,22542,81299,105605
2025-04-14 12:31:02.862,99218,21031,22551,81400,105663
2025-04-14 12:31:02.864,99238,21043,22562,81486,105758
2025-04-14 12:31:02.866,99270,21056,22572,81582,105849
2025-04-14 12:31:02.868,99277,21066,22583,81676,105934
2025-04-14 12:31:02.880,99310,21073,22592,81763,106024
2025-04-14 12:31:02.889,99312,21086,22598,81845,106116
2025-04-14 12:31:02.932,99311,21092,22614,81919,106198
2025-04-14 12:31:02.934,98458,21119,22763,82048,106275
2025-04-14 12:31:02.936,98476,21127,22768,82094,106415
2025-04-14 12:31:02.938,98470,21134,22778,82149,106476
2025-04-14 12:31:02.940,98442,21143,22789,82209,106518
2025-04-14 12:31:02.952,98445,21156,22788,82244,106549
2025-04-14 12:31:02.960,98434,21164,22802,82296,106605
2025-04-14 12:31:02.972,98438,21174,22810,82327,106645
2025-04-14 12:31:02.980,98445,21186,22816,82363,106683
2025-04-14 12:31:03.001,98448,21196,22824,82409,106702
2025-04-14 12:31:03.003,98457,21203,22833,82429,106737
2025-04-14 12:31:03.012,98456,21209,22845,82466,106768
2025-04-14 12:31:03.020,98455,21218,22849,82496,106797
2025-04-14 12:31:03.032,98444,21229,22850,82528,106823
2025-04-14 12:31:03.041,98450,21226,22852,82564,106852
2025-04-14 12:31:03.068,98455,21229,22856,82584,106875
2025-04-14 12:31:03.070,98489,21226,22853,82630,106904
2025-04-14 12:31:03.072,98508,21231,22859,82682,106931
2025-04-14 12:31:03.081,98513,21235,22864,82749,106979
2025-04-14 12:31:03.091,98521,21243,22872,82782,107037
2025-04-14 12:31:03.101,98525,21252,22882,82840,107076
2025-04-14 12:31:03.112,98533,21261,22890,82868,107123
2025-04-14 12:31:03.134,98543,21275,22894,82904,107168
2025-04-14 12:31:03.136,98555,21275,22899,82951,107207
2025-04-14 12:31:03.140,98569,21290,22915,82989,107235
2025-04-14 12:31:03.152,98599,21298,22917,83021,107267
2025-04-14 12:31:03.160,98625,21305,22928,83042,107311
2025-04-14 12:31:03.171,98629,21318,22936,83080,107332
2025-04-14 12:31:03.180,98657,21321,22944,83103,107354
2025-04-14 12:31:03.200,98668,21329,22947,83130,107388
2025-04-14 12:31:03.201,98709,21340,22952,83145,107403
2025-04-14 12:31:03.211,98726,21338,22952,83183,107431
2025-04-14 12:31:03.220,98744,21350,22963,83200,107455
2025-04-14 12:31:03.232,98773,21353,22968,83218,107491
2025-04-14 12:31:03.240,98765,21366,22971,83221,107485
2025-04-14 12:31:03.265,98771,21372,22981,83237,107509
2025-04-14 12:31:03.266,98768,21381,22994,83245,107508
2025-04-14 12:31:03.272,98779,21393,22995,83239,107497
2025-04-14 12:31:03.281,98772,21389,23003,83240,107514
2025-04-14 12:31:03.292,98782,21402,23006,83233,107512
2025-04-14 12:31:03.304,98796,21399,23008,83255,107512
2025-04-14 12:31:03.307,98796,21399,23008,83255,107512
2025-04-14 12:31:03.312,98801,21399,23002,83272,107520
2025-04-14 12:31:03.331,98790,21386,22999,83274,107528
2025-04-14 12:31:03.332,98781,21368,22991,83268,107536
2025-04-14 12:31:03.344,98773,21352,22976,83266,107520
2025-04-14 12:31:03.352,98749,21336,22966,83250,107518
2025-04-14 12:31:03.364,98726,21315,22951,83228,107497
2025-04-14 12:31:03.372,98713,21302,22932,83209,107480
2025-04-14 12:31:03.396,98686,21280,22923,83186,107455
2025-04-14 12:31:03.397,98663,21278,22919,83170,107424
2025-04-14 12:31:03.404,98638,21266,22913,83155,107409
2025-04-14 12:31:03.411,98613,21262,22907,83139,107394
2025-04-14 12:31:03.423,98610,21263,22907,83133,107375
2025-04-14 12:31:03.431,98613,21257,22903,83134,107357
2025-04-14 12:31:03.444,98601,21246,22894,83111,107330
2025-04-14 12:31:03.462,98598,21238,22896,83126,107337
2025-04-14 12:31:03.465,98568,21235,22892,83128,107346
2025-04-14 12:31:03.472,98561,21232,22889,83149,107346
2025-04-14 12:31:03.484,98542,21237,22889,83161,107358
2025-04-14 12:31:03.492,98536,21238,22891,83175,107367
2025-04-14 12:31:03.504,98529,21232,22893,83192,107380
2025-04-14 12:31:03.527,98531,21231,22884,83212,107390
2025-04-14 12:31:03.528,98505,21230,22888,83220,107406
2025-04-14 12:31:03.532,98504,21225,22881,83244,107421
2025-04-14 12:31:03.544,98501,21222,22881,83265,107439
2025-04-14 12:31:03.552,98494,21218,22876,83299,107462
2025-04-14 12:31:03.564,98526,21215,22871,83328,107487
2025-04-14 12:31:03.572,98550,21213,22869,83375,107533
2025-04-14 12:31:03.593,98601,21207,22871,83441,107566
2025-04-14 12:31:03.594,98646,21206,22872,83500,107640
2025-04-14 12:31:03.603,98673,21203,22876,83554,107711
2025-04-14 12:31:03.615,98693,21206,22866,83602,107763
2025-04-14 12:31:03.624,98714,21198,22869,83661,107823
2025-04-14 12:31:03.635,98722,21202,22874,83710,107868
2025-04-14 12:31:03.660,98751,21205,22872,83787,107921
2025-04-14 12:31:03.662,98800,21206,22877,83864,107991
2025-04-14 12:31:03.663,98833,21216,22882,83945,108068
2025-04-14 12:31:03.676,98875,21222,22881,84033,108158
2025-04-14 12:31:03.684,98918,21231,22884,84117,108236
2025-04-14 12:31:03.695,98939,21228,22887,84232,108329
2025-04-14 12:31:03.704,98962,21226,22880,84342,108427
2025-04-14 12:31:03.725,98986,21224,22869,84478,108559
2025-04-14 12:31:03.727,98979,21201,22853,84619,108670
2025-04-14 12:31:03.736,99006,21188,22840,84823,108806
2025-04-14 12:31:03.743,100853,21034,22998,86027,109001
2025-04-14 12:31:03.756,103282,20975,23339,87011,109994
2025-04-14 12:31:03.764,105802,20908,23803,88179,110956
2025-04-14 12:31:03.790,108294,20798,24190,89140,112141
2025-04-14 12:31:03.792,108999,20768,24250,89458,113070
2025-04-14 12:31:03.795,109147,20780,24254,89702,113362
2025-04-14 12:31:03.803,109235,20781,24261,89912,113592
2025-04-14 12:31:03.816,109311,20785,24261,90113,113776
2025-04-14 12:31:03.823,109351,20783,24253,90326,113960
2025-04-14 12:31:03.835,109443,20776,24248,90552,114162
2025-04-14 12:31:03.854,109612,20775,24252,90788,114368
2025-04-14 12:31:03.856,109840,20788,24258,91013,114589
2025-04-14 12:31:03.864,110069,20798,24273,91241,114798
2025-04-14 12:31:03.875,110257,20820,24289,91418,115009
2025-04-14 12:31:03.884,110398,20837,24303,91582,115187
2025-04-14 12:31:03.895,110506,20852,24328,91705,115323
2025-04-14 12:31:03.918,110588,20877,24352,91826,115458
2025-04-14 12:31:03.919,110661,20911,24374,91913,115553
2025-04-14 12:31:03.928,110710,20932,24410,92003,115651
2025-04-14 12:31:03.935,110768,20966,24437,92076,115746
2025-04-14 12:31:03.948,110814,21008,24469,92136,115827
2025-04-14 12:31:03.955,110868,21049,24518,92188,115920
2025-04-14 12:31:03.967,110945,21100,24569,92202,115982
2025-04-14 12:31:03.983,110903,21155,24627,92175,116025
2025-04-14 12:31:03.987,110733,21213,24673,92102,116043
2025-04-14 12:31:03.996,110530,21259,24719,92026,116002
2025-04-14 12:31:04.007,110364,21305,24763,91927,115951
2025-04-14 12:31:04.016,110208,21352,24810,91822,115878
2025-04-14 12:31:04.027,110093,21401,24855,91718,115777
2025-04-14 12:31:04.046,110023,21441,24891,91597,115681
2025-04-14 12:31:04.047,109938,21480,24934,91485,115545
2025-04-14 12:31:04.056,109855,21519,24972,91367,115432
2025-04-14 12:31:04.068,109738,21554,25000,91225,115301
2025-04-14 12:31:04.076,109639,21589,25033,91069,115147
2025-04-14 12:31:04.088,109525,21622,25065,90883,114987
2025-04-14 12:31:04.108,109419,21665,25090,90680,114798
2025-04-14 12:31:04.109,109263,21691,25112,90459,114601
2025-04-14 12:31:04.111,109263,21691,25112,90459,114601
2025-04-14 12:31:04.115,108937,21712,25129,90052,114148
2025-04-14 12:31:04.128,108886,21719,25131,89895,113941
2025-04-14 12:31:04.136,108821,21717,25132,89749,113767
2025-04-14 12:31:04.148,108793,21715,25129,89634,113627
2025-04-14 12:31:04.171,108746,21719,25126,89550,113503
2025-04-14 12:31:04.172,108707,21718,25134,89467,113391
2025-04-14 12:31:04.179,108668,21718,25131,89393,113312
2025-04-14 12:31:04.187,108636,21713,25133,89323,113231
2025-04-14 12:31:04.199,108642,21718,25136,89290,113171
2025-04-14 12:31:04.207,108636,21714,25138,89251,113107
2025-04-14 12:31:04.219,108647,21720,25136,89229,113064
2025-04-14 12:31:04.235,108639,21710,25126,89191,113028
2025-04-14 12:31:04.239,108641,21698,25111,89144,113003
2025-04-14 12:31:04.248,108644,21684,25106,89112,112969
2025-04-14 12:31:04.260,108627,21665,25090,89080,112924
2025-04-14 12:31:04.267,108601,21655,25084,89018,112878
2025-04-14 12:31:04.279,108563,21642,25066,88957,112826
2025-04-14 12:31:04.298,108493,21627,25046,88862,112757
2025-04-14 12:31:04.299,108403,21618,25044,88757,112654
2025-04-14 12:31:04.307,108318,21607,25037,88655,112569
2025-04-14 12:31:04.320,108236,21610,25033,88528,112442
2025-04-14 12:31:04.328,108166,21607,25036,88413,112330
2025-04-14 12:31:04.339,108080,21621,25046,88304,112222
2025-04-14 12:31:04.347,108006,21627,25056,88197,112094
2025-04-14 12:31:04.361,107949,21639,25063,88101,112000
2025-04-14 12:31:04.368,107912,21648,25072,87991,111882
2025-04-14 12:31:04.379,108753,21717,24489,86996,111784
2025-04-14 12:31:04.388,104697,21626,23270,85688,110292
2025-04-14 12:31:04.400,104639,21643,23286,85612,109043
2025-04-14 12:31:04.407,104591,21647,23292,85515,108969
2025-04-14 12:31:04.426,104524,21656,23299,85414,108856
2025-04-14 12:31:04.431,104473,21666,23305,85323,108762
2025-04-14 12:31:04.440,104419,21666,23301,85219,108683
2025-04-14 12:31:04.452,104374,21659,23301,85141,108588
2025-04-14 12:31:04.459,104344,21654,23293,85057,108477
2025-04-14 12:31:04.471,104281,21649,23271,84954,108395
2025-04-14 12:31:04.488,104675,21681,23221,84982,108279
2025-04-14 12:31:04.491,104662,21671,23217,84915,108373
2025-04-14 12:31:04.500,104664,21664,23207,84847,108317
2025-04-14 12:31:04.511,104821,21662,23207,84848,108246
2025-04-14 12:31:04.519,105293,21662,23154,84834,108273
2025-04-14 12:31:04.531,105345,21670,23158,84809,108246
2025-04-14 12:31:04.552,105414,21673,23167,84808,108260
2025-04-14 12:31:04.553,105464,21679,23177,84810,108265
2025-04-14 12:31:04.559,105511,21693,23187,84824,108261
2025-04-14 12:31:04.571,105526,21698,23199,84821,108289
2025-04-14 12:31:04.579,105506,21723,23211,84841,108281
2025-04-14 12:31:04.591,105458,21741,23232,84809,108286
2025-04-14 12:31:04.599,105378,21759,23247,84783,108273
2025-04-14 12:31:04.616,105282,21771,23257,84704,108222
2025-04-14 12:31:04.619,105180,21779,23266,84621,108131
2025-04-14 12:31:04.632,105084,21778,23270,84503,108033
2025-04-14 12:31:04.639,104966,21771,23267,84389,107910
2025-04-14 12:31:04.651,104874,21755,23253,84248,107759
2025-04-14 12:31:04.659,104795,21733,23235,84117,107617
2025-04-14 12:31:04.680,104730,21706,23219,84010,107495
2025-04-14 12:31:04.684,104705,21687,23202,83948,107376
2025-04-14 12:31:04.692,104691,21667,23178,83891,107300
2025-04-14 12:31:04.703,104704,21643,23168,83857,107245
2025-04-14 12:31:04.711,104694,21627,23151,83847,107226
2025-04-14 12:31:04.723,104715,21615,23136,83847,107191
2025-04-14 12:31:04.747,104708,21605,23129,83818,107179
2025-04-14 12:31:04.748,104723,21598,23118,83804,107159
2025-04-14 12:31:04.751,104753,21599,23123,83786,107140
2025-04-14 12:31:04.764,104768,21597,23120,83775,107134
2025-04-14 12:31:04.771,104790,21599,23125,83764,107128
2025-04-14 12:31:04.783,104821,21604,23132,83764,107132
2025-04-14 12:31:04.792,104858,21608,23132,83767,107128
2025-04-14 12:31:04.813,104869,21614,23143,83782,107148
2025-04-14 12:31:04.815,104864,21617,23149,83785,107150
2025-04-14 12:31:04.824,104860,21628,23154,83793,107181
2025-04-14 12:31:04.831,104847,21639,23159,83810,107188
2025-04-14 12:31:04.844,104802,21646,23172,83819,107188
2025-04-14 12:31:04.851,104783,21658,23183,83814,107211
2025-04-14 12:31:04.878,104782,21668,23192,83815,107218
2025-04-14 12:31:04.880,104765,21673,23208,83801,107218
2025-04-14 12:31:04.883,104760,21680,23211,83771,107204
2025-04-14 12:31:04.891,104741,21683,23207,83737,107192
2025-04-14 12:31:04.904,104718,21676,23208,83702,107161
2025-04-14 12:31:04.916,104705,21676,23198,83662,107117
2025-04-14 12:31:04.923,104667,21666,23194,83631,107072
2025-04-14 12:31:04.943,104635,21659,23190,83584,107029
2025-04-14 12:31:04.944,104606,21652,23184,83544,106999
2025-04-14 12:31:04.955,104553,21639,23176,83513,106940
2025-04-14 12:31:04.963,104515,21638,23174,83467,106889
2025-04-14 12:31:04.975,104489,21633,23169,83434,106844
2025-04-14 12:31:04.983,104456,21622,23164,83384,106802
2025-04-14 12:31:05.006,104443,21607,23146,83332,106764
2025-04-14 12:31:05.007,104424,21584,23123,83299,106723
2025-04-14 12:31:05.016,104429,21564,23114,83265,106677
2025-04-14 12:31:05.023,104425,21550,23094,83239,106631
2025-04-14 12:31:05.035,104424,21541,23091,83209,106613
2025-04-14 12:31:05.043,104414,21532,23085,83201,106579
2025-04-14 12:31:05.055,104405,21527,23082,83190,106579
2025-04-14 12:31:05.072,104385,21524,23075,83181,106561
2025-04-14 12:31:05.075,104394,21522,23076,83154,106542
2025-04-14 12:31:05.083,104389,21516,23067,83137,106531
2025-04-14 12:31:05.095,104383,21515,23070,83113,106521
2025-04-14 12:31:05.104,104380,21506,23064,83105,106502
2025-04-14 12:31:05.115,104363,21500,23055,83091,106497
2025-04-14 12:31:05.119,104363,21500,23055,83091,106497
2025-04-14 12:31:05.134,104348,21472,23038,83070,106451
2025-04-14 12:31:05.136,104342,21461,23031,83069,106458
2025-04-14 12:31:05.144,104337,21447,23024,83059,106480
2025-04-14 12:31:05.155,104323,21430,23013,83062,106471
2025-04-14 12:31:05.163,104317,21426,23006,83068,106484
2025-04-14 12:31:05.175,104296,21412,23005,83044,106488
2025-04-14 12:31:05.183,104263,21402,22997,83044,106497
2025-04-14 12:31:05.199,104229,21394,22995,83016,106490
2025-04-14 12:31:05.207,104209,21390,22993,82995,106480
2025-04-14 12:31:05.215,104189,21390,22997,82983,106468
2025-04-14 12:31:05.227,104194,21383,22997,82974,106449
2025-04-14 12:31:05.234,104199,21386,23006,82990,106460
2025-04-14 12:31:05.247,104208,21387,23008,83014,106471
2025-04-14 12:31:05.263,104234,21389,23013,83027,106477
2025-04-14 12:31:05.267,104256,21397,23020,83050,106500
2025-04-14 12:31:05.274,104275,21399,23029,83079,106509
2025-04-14 12:31:05.287,104290,21406,23033,83101,106542
2025-04-14 12:31:05.295,104306,21411,23039,83119,106561
2025-04-14 12:31:05.307,104333,21421,23047,83142,106588
2025-04-14 12:31:05.326,104349,21426,23053,83140,106596
2025-04-14 12:31:05.328,104364,21435,23059,83170,106619
2025-04-14 12:31:05.335,104376,21436,23065,83174,106632
2025-04-14 12:31:05.347,104386,21444,23072,83186,106636
2025-04-14 12:31:05.355,104396,21444,23069,83186,106644
2025-04-14 12:31:05.367,104404,21449,23074,83204,106653
2025-04-14 12:31:05.375,104420,21444,23078,83204,106659
2025-04-14 12:31:05.390,104433,21443,23077,83196,106642
2025-04-14 12:31:05.395,104441,21441,23081,83180,106648
2025-04-14 12:31:05.407,104445,21437,23076,83164,106618
2025-04-14 12:31:05.416,104444,21431,23069,83130,106600
2025-04-14 12:31:05.427,104427,21417,23054,83107,106572
2025-04-14 12:31:05.439,104411,21409,23050,83078,106555
2025-04-14 12:31:05.455,104392,21392,23040,83022,106510
2025-04-14 12:31:05.458,104359,21377,23024,82976,106465
2025-04-14 12:31:05.467,104321,21372,23015,82937,106393
2025-04-14 12:31:05.478,104279,21354,23010,82906,106349
2025-04-14 12:31:05.487,104245,21345,23000,82887,106303
2025-04-14 12:31:05.498,104205,21340,23001,82863,106274
2025-04-14 12:31:05.518,104165,21335,22992,82852,106254
2025-04-14 12:31:05.520,104127,21328,22991,82859,106246
2025-04-14 12:31:05.527,104095,21336,22994,82848,106245
2025-04-14 12:31:05.539,104066,21333,22992,82841,106245
2025-04-14 12:31:05.547,104063,21329,22992,82828,106246
2025-04-14 12:31:05.559,104052,21323,22988,82817,106248
2025-04-14 12:31:05.567,104036,21321,22987,82788,106223
2025-04-14 12:31:05.586,104054,21317,22983,82769,106209
2025-04-14 12:31:05.588,104078,21317,22979,82745,106194
2025-04-14 12:31:05.599,104091,21316,22977,82727,106176
2025-04-14 12:31:05.607,104115,21313,22979,82696,106163
2025-04-14 12:31:05.619,104138,21315,22975,82667,106134
2025-04-14 12:31:05.627,104136,21308,22971,82635,106105
2025-04-14 12:31:05.651,104127,21306,22966,82607,106079
2025-04-14 12:31:05.653,104114,21304,22967,82582,106057
2025-04-14 12:31:05.658,104099,21304,22962,82573,106037
2025-04-14 12:31:05.668,104087,21302,22961,82557,106025
2025-04-14 12:31:05.679,104078,21296,22966,82559,106012
2025-04-14 12:31:05.691,104062,21296,22965,82566,106021
2025-04-14 12:31:05.699,104048,21292,22959,82554,105998
2025-04-14 12:31:05.715,104036,21293,22958,82538,105991
2025-04-14 12:31:05.719,104025,21287,22957,82533,105969
2025-04-14 12:31:05.731,104006,21288,22951,82512,105963
2025-04-14 12:31:05.739,103979,21281,22953,82504,105947
2025-04-14 12:31:05.751,103964,21278,22942,82480,105932
2025-04-14 12:31:05.759,103941,21276,22946,82473,105905
2025-04-14 12:31:05.779,103930,21275,22941,82467,105907
2025-04-14 12:31:05.781,103928,21269,22945,82472,105879
2025-04-14 12:31:05.791,103922,21281,22941,82486,105886
2025-04-14 12:31:05.798,103923,21286,22946,82498,105919
2025-04-14 12:31:05.811,103918,21285,22953,82543,105943
2025-04-14 12:31:05.818,103913,21299,22958,82604,105972
2025-04-14 12:31:05.844,103891,21306,22974,82698,106044
2025-04-14 12:31:05.845,103876,21325,22992,82811,106161
2025-04-14 12:31:05.851,103845,21348,23004,82921,106285
2025-04-14 12:31:05.860,103845,21364,23030,83046,106389
2025-04-14 12:31:05.871,103801,21382,23039,83160,106522
2025-04-14 12:31:05.879,103770,21401,23063,83255,106643
2025-04-14 12:31:05.890,103701,21412,23075,83349,106754
2025-04-14 12:31:05.908,103669,21424,23088,83385,106844
2025-04-14 12:31:05.911,103602,21435,23099,83395,106862
2025-04-14 12:31:05.922,103511,21442,23109,83366,106873
2025-04-14 12:31:05.926,103511,21442,23109,83366,106873
2025-04-14 12:31:05.931,103143,21423,23104,83210,106780
2025-04-14 12:31:05.943,103085,21424,23097,83166,106633
2025-04-14 12:31:05.950,103044,21409,23094,83095,106564
2025-04-14 12:31:05.972,103019,21395,23083,83011,106495
2025-04-14 12:31:05.973,103027,21379,23063,82916,106402
2025-04-14 12:31:05.983,103050,21353,23040,82803,106295
2025-04-14 12:31:05.991,103085,21321,23010,82701,106182
2025-04-14 12:31:06.003,103115,21286,22986,82571,106049
2025-04-14 12:31:06.010,103142,21250,22958,82469,105930
2025-04-14 12:31:06.036,103165,21216,22927,82371,105827
2025-04-14 12:31:06.037,103205,21189,22901,82289,105721
2025-04-14 12:31:06.042,103252,21154,22877,82234,105653
2025-04-14 12:31:06.051,103304,21134,22855,82195,105613
2025-04-14 12:31:06.063,103356,21105,22839,82179,105585
2025-04-14 12:31:06.071,103420,21087,22830,82180,105584
2025-04-14 12:31:06.083,103452,21076,22826,82180,105584
2025-04-14 12:31:06.099,103512,21068,22804,82189,105617
2025-04-14 12:31:06.103,103556,21059,22814,82194,105643
2025-04-14 12:31:06.111,103594,21056,22810,82203,105633
2025-04-14 12:31:06.123,103625,21052,22805,82206,105648
2025-04-14 12:31:06.130,103655,21056,22805,82224,105658
2025-04-14 12:31:06.143,103672,21051,22807,82238,105660
2025-04-14 12:31:06.161,103699,21056,22813,82247,105685
2025-04-14 12:31:06.163,103733,21059,22815,82260,105694
2025-04-14 12:31:06.175,103758,21061,22823,82286,105711
2025-04-14 12:31:06.182,103784,21069,22826,82308,105729
2025-04-14 12:31:06.195,103822,21075,22830,82322,105754
2025-04-14 12:31:06.202,103851,21076,22832,82325,105778
2025-04-14 12:31:06.225,103838,21084,22840,82328,105777
2025-04-14 12:31:06.227,103857,21090,22841,82331,105778
2025-04-14 12:31:06.235,103843,21090,22842,82328,105782
2025-04-14 12:31:06.243,103853,21098,22844,82329,105779
2025-04-14 12:31:06.255,103853,21095,22846,82332,105774
2025-04-14 12:31:06.263,103847,21099,22851,82322,105772
2025-04-14 12:31:06.274,103845,21100,22848,82321,105775
2025-04-14 12:31:06.289,103840,21099,22847,82310,105769
2025-04-14 12:31:06.294,103831,21094,22848,82302,105759
2025-04-14 12:31:06.304,103828,21093,22844,82291,105756
2025-04-14 12:31:06.316,103819,21088,22841,82270,105718
2025-04-14 12:31:06.323,103803,21085,22839,82252,105712
2025-04-14 12:31:06.335,103789,21076,22826,82226,105711
2025-04-14 12:31:06.353,103775,21071,22823,82205,105678
2025-04-14 12:31:06.355,103773,21061,22814,82200,105654
2025-04-14 12:31:06.363,103755,21055,22814,82182,105636
2025-04-14 12:31:06.375,103744,21054,22803,82171,105629
2025-04-14 12:31:06.383,103730,21053,22802,82143,105622
2025-04-14 12:31:06.394,103728,21041,22796,82132,105603
2025-04-14 12:31:06.417,103714,21034,22794,82133,105604
2025-04-14 12:31:06.418,103717,21035,22797,82119,105590
2025-04-14 12:31:06.427,103697,21035,22792,82114,105581
2025-04-14 12:31:06.435,103699,21030,22792,82098,105572
2025-04-14 12:31:06.446,103688,21032,22796,82100,105573
2025-04-14 12:31:06.455,103696,21037,22791,82093,105560
2025-04-14 12:31:06.482,103692,21039,22790,82084,105568
2025-04-14 12:31:06.483,103684,21037,22797,82075,105561
2025-04-14 12:31:06.486,103679,21035,22795,82078,105556
2025-04-14 12:31:06.496,103691,21042,22795,82084,105563
2025-04-14 12:31:06.506,103684,21044,22797,82084,105564
2025-04-14 12:31:06.515,103703,21043,22799,82083,105563
2025-04-14 12:31:06.526,103700,21043,22799,82091,105567
2025-04-14 12:31:06.544,103704,21052,22808,82087,105573
2025-04-14 12:31:06.546,103711,21049,22807,82104,105579
2025-04-14 12:31:06.555,103723,21061,22813,82097,105584
2025-04-14 12:31:06.567,103724,21059,22817,82101,105605
2025-04-14 12:31:06.574,103721,21066,22814,82101,105594
2025-04-14 12:31:06.587,103721,21066,22822,82103,105590
2025-04-14 12:31:06.608,103714,21072,22819,82102,105611
2025-04-14 12:31:06.610,103702,21074,22821,82093,105596
2025-04-14 12:31:06.615,103702,21074,22826,82078,105582
2025-04-14 12:31:06.627,103690,21081,22829,82077,105575
2025-04-14 12:31:06.635,103689,21081,22830,82085,105581
2025-04-14 12:31:06.647,103694,21081,22833,82072,105597
2025-04-14 12:31:06.672,103699,21081,22836,82082,105583
2025-04-14 12:31:06.673,103696,21091,22841,82084,105585
2025-04-14 12:31:06.679,103702,21090,22842,82093,105593
2025-04-14 12:31:06.686,103696,21095,22847,82098,105607
2025-04-14 12:31:06.698,103708,21098,22846,82093,105593
2025-04-14 12:31:06.707,103703,21098,22844,82097,105598
2025-04-14 12:31:06.718,103718,21104,22853,82103,105608
2025-04-14 12:31:06.736,103714,21111,22857,82105,105622
2025-04-14 12:31:06.738,103714,21111,22857,82105,105622
2025-04-14 12:31:06.739,103742,21115,22862,82116,105634
2025-04-14 12:31:06.746,103750,21115,22864,82122,105643
2025-04-14 12:31:06.759,103765,21120,22876,82145,105649
2025-04-14 12:31:06.767,103778,21126,22879,82150,105665
2025-04-14 12:31:06.778,103779,21133,22882,82148,105676
2025-04-14 12:31:06.800,103788,21137,22892,82147,105686
2025-04-14 12:31:06.801,103787,21140,22893,82152,105670
2025-04-14 12:31:06.806,103776,21140,22888,82140,105670
2025-04-14 12:31:06.818,103756,21137,22883,82111,105662
2025-04-14 12:31:06.827,103723,21130,22876,82095,105623
2025-04-14 12:31:06.838,103696,21114,22865,82063,105600
2025-04-14 12:31:06.846,103653,21097,22851,82031,105557
2025-04-14 12:31:06.863,103610,21072,22824,81982,105507
2025-04-14 12:31:06.866,103566,21038,22801,81929,105438
2025-04-14 12:31:06.879,103527,21008,22774,81883,105402
2025-04-14 12:31:06.886,103481,20973,22746,81831,105345
2025-04-14 12:31:06.898,103447,20937,22714,81770,105284
2025-04-14 12:31:06.907,103378,20904,22690,81726,105239
2025-04-14 12:31:06.927,103336,20869,22662,81664,105177
2025-04-14 12:31:06.930,103268,20837,22628,81616,105122
2025-04-14 12:31:06.939,103220,20807,22607,81555,105061
2025-04-14 12:31:06.951,103167,20786,22583,81516,105007
2025-04-14 12:31:06.959,103119,20759,22572,81488,104964
2025-04-14 12:31:06.970,103090,20745,22557,81471,104950
2025-04-14 12:31:06.990,103091,20737,22551,81464,104916
2025-04-14 12:31:06.992,103084,20732,22542,81471,104917
2025-04-14 12:31:06.999,103078,20726,22538,81473,104922
2025-04-14 12:31:07.010,103099,20724,22537,81472,104918
2025-04-14 12:31:07.019,103091,20722,22534,81472,104925
2025-04-14 12:31:07.030,103094,20728,22534,81485,104937
2025-04-14 12:31:07.039,103093,20729,22538,81485,104920
2025-04-14 12:31:07.054,103110,20727,22533,81484,104942
2025-04-14 12:31:07.058,103133,20728,22539,81501,104949
2025-04-14 12:31:07.071,103146,20739,22542,81508,104962
2025-04-14 12:31:07.078,103161,20740,22545,81537,104970
2025-04-14 12:31:07.090,103159,20747,22556,81532,104990
2025-04-14 12:31:07.099,103163,20750,22549,81546,104988
2025-04-14 12:31:07.117,103168,20753,22552,81551,104996
2025-04-14 12:31:07.119,103188,20753,22558,81570,104999
2025-04-14 12:31:07.130,103211,20761,22566,81594,105038
2025-04-14 12:31:07.138,103242,20768,22564,81618,105060
2025-04-14 12:31:07.151,103267,20771,22568,81644,105095
2025-04-14 12:31:07.162,103289,20773,22571,81663,105121
2025-04-14 12:31:07.181,103307,20777,22574,81686,105149
2025-04-14 12:31:07.183,103314,20782,22584,81711,105172
2025-04-14 12:31:07.190,103329,20789,22585,81730,105187
2025-04-14 12:31:07.203,103344,20787,22586,81746,105198
2025-04-14 12:31:07.210,103363,20794,22588,81750,105222
2025-04-14 12:31:07.222,103364,20791,22593,81752,105235
2025-04-14 12:31:07.244,103350,20795,22591,81737,105223
2025-04-14 12:31:07.246,103339,20792,22588,81728,105210
2025-04-14 12:31:07.251,103310,20790,22587,81696,105177
2025-04-14 12:31:07.262,103298,20788,22585,81678,105150
2025-04-14 12:31:07.270,103271,20784,22575,81650,105123
2025-04-14 12:31:07.283,103256,20778,22571,81624,105075
2025-04-14 12:31:07.290,103243,20771,22562,81608,105035
2025-04-14 12:31:07.308,103232,20766,22560,81590,105030
2025-04-14 12:31:07.310,103234,20756,22552,81582,105007
2025-04-14 12:31:07.323,103230,20753,22551,81583,104980
2025-04-14 12:31:07.330,103233,20755,22543,81577,104984
2025-04-14 12:31:07.343,103232,20752,22545,81582,104997
2025-04-14 12:31:07.350,103234,20755,22546,81587,104982
2025-04-14 12:31:07.371,103233,20758,22545,81589,104994
2025-04-14 12:31:07.373,103233,20767,22556,81608,104998
2025-04-14 12:31:07.383,103258,20767,22559,81622,105033
2025-04-14 12:31:07.390,103278,20778,22575,81640,105031
2025-04-14 12:31:07.403,103296,20799,22578,81661,105077
2025-04-14 12:31:07.414,103292,20801,22594,81669,105103
2025-04-14 12:31:07.436,103304,20818,22599,81681,105136
2025-04-14 12:31:07.438,103320,20824,22609,81708,105136
2025-04-14 12:31:07.442,103323,20834,22618,81697,105153
2025-04-14 12:31:07.454,103344,20847,22627,81730,105159
2025-04-14 12:31:07.463,103366,20852,22633,81739,105169
2025-04-14 12:31:07.474,103379,20857,22636,81748,105210
2025-04-14 12:31:07.483,103420,20860,22641,81761,105225
2025-04-14 12:31:07.500,103411,20867,22644,81763,105226
2025-04-14 12:31:07.503,103408,20867,22646,81756,105233
2025-04-14 12:31:07.514,103414,20871,22651,81763,105219
2025-04-14 12:31:07.523,103402,20869,22655,81751,105232
2025-04-14 12:31:07.535,103398,20871,22653,81759,105209
2025-04-14 12:31:07.538,103398,20871,22653,81759,105209
2025-04-14 12:31:07.542,103417,20871,22657,81755,105211
2025-04-14 12:31:07.564,103423,20872,22655,81773,105198
2025-04-14 12:31:07.565,103429,20871,22653,81783,105216
2025-04-14 12:31:07.575,103454,20874,22657,81773,105210
2025-04-14 12:31:07.582,103450,20875,22657,81785,105224
2025-04-14 12:31:07.595,103447,20880,22660,81782,105221
2025-04-14 12:31:07.602,103451,20880,22660,81790,105236
2025-04-14 12:31:07.627,103446,20882,22661,81789,105240
2025-04-14 12:31:07.629,103449,20882,22665,81780,105230
2025-04-14 12:31:07.634,103442,20883,22664,81774,105218
2025-04-14 12:31:07.643,103436,20881,22665,81768,105228
2025-04-14 12:31:07.655,103431,20877,22663,81775,105215
2025-04-14 12:31:07.666,103418,20876,22659,81753,105201
2025-04-14 12:31:07.674,103408,20870,22652,81758,105201
2025-04-14 12:31:07.692,103403,20861,22648,81761,105217
2025-04-14 12:31:07.694,103392,20853,22635,81761,105208
2025-04-14 12:31:07.706,103392,20832,22620,81770,105213
2025-04-14 12:31:07.714,103390,20812,22607,81760,105223
2025-04-14 12:31:07.726,103395,20797,22597,81756,105222
2025-04-14 12:31:07.735,103402,20780,22582,81744,105218
2025-04-14 12:31:07.755,103405,20760,22565,81750,105216
2025-04-14 12:31:07.756,103424,20739,22555,81743,105216
2025-04-14 12:31:07.766,103435,20728,22545,81743,105213
2025-04-14 12:31:07.774,103447,20722,22539,81745,105216
2025-04-14 12:31:07.787,103450,20718,22537,81762,105237
2025-04-14 12:31:07.794,103476,20708,22533,81778,105260
2025-04-14 12:31:07.819,103502,20709,22532,81790,105261
2025-04-14 12:31:07.820,103516,20706,22527,81813,105283
2025-04-14 12:31:07.826,103524,20704,22530,81830,105297
2025-04-14 12:31:07.835,103521,20710,22529,81837,105309
2025-04-14 12:31:07.847,103531,20709,22527,81852,105326
2025-04-14 12:31:07.854,103540,20707,22534,81848,105332
2025-04-14 12:31:07.866,103532,20705,22530,81853,105341
2025-04-14 12:31:07.883,103525,20708,22535,81857,105323
2025-04-14 12:31:07.886,103528,20706,22532,81861,105314
2025-04-14 12:31:07.895,103536,20715,22535,81851,105316
2025-04-14 12:31:07.906,103527,20717,22532,81844,105323
2025-04-14 12:31:07.918,103503,20713,22542,81843,105307
2025-04-14 12:31:07.925,103492,20717,22532,81837,105298
2025-04-14 12:31:07.947,103489,20716,22535,81821,105295
2025-04-14 12:31:07.948,103454,20713,22528,81811,105274
2025-04-14 12:31:07.959,103451,20705,22525,81795,105254
2025-04-14 12:31:07.966,103428,20697,22515,81776,105228
2025-04-14 12:31:07.978,103401,20696,22513,81748,105196
2025-04-14 12:31:07.986,103396,20686,22505,81728,105181
2025-04-14 12:31:08.011,103364,20673,22497,81717,105156
2025-04-14 12:31:08.013,103360,20669,22489,81709,105144
2025-04-14 12:31:08.019,103360,20660,22482,81705,105125
2025-04-14 12:31:08.026,103364,20653,22481,81701,105127
2025-04-14 12:31:08.038,103359,20645,22473,81704,105127
2025-04-14 12:31:08.047,103369,20643,22472,81716,105131
2025-04-14 12:31:08.058,103375,20643,22470,81720,105149
2025-04-14 12:31:08.074,103382,20640,22466,81739,105154
2025-04-14 12:31:08.078,103392,20643,22469,81746,105176
2025-04-14 12:31:08.086,103409,20643,22474,81757,105185
2025-04-14 12:31:08.098,103410,20647,22471,81768,105210
2025-04-14 12:31:08.107,103416,20650,22477,81773,105212
2025-04-14 12:31:08.118,103424,20651,22470,81782,105223
2025-04-14 12:31:08.138,103426,20655,22472,81780,105219
2025-04-14 12:31:08.139,103419,20655,22478,81772,105215
2025-04-14 12:31:08.142,103419,20655,22478,81772,105215
2025-04-14 12:31:08.146,103418,20660,22477,81767,105213
2025-04-14 12:31:08.158,103417,20659,22472,81746,105196
2025-04-14 12:31:08.170,103409,20661,22475,81730,105185
2025-04-14 12:31:08.178,103391,20663,22475,81709,105178
2025-04-14 12:31:08.202,103358,20658,22469,81683,105145
2025-04-14 12:31:08.203,103339,20657,22470,81665,105120
2025-04-14 12:31:08.210,103322,20654,22467,81619,105070
2025-04-14 12:31:08.218,103296,20652,22468,81597,105046
2025-04-14 12:31:08.230,103258,20650,22460,81568,105010
2025-04-14 12:31:08.238,103243,20645,22459,81545,104978
2025-04-14 12:31:08.250,103225,20642,22455,81514,104961
2025-04-14 12:31:08.265,103210,20636,22451,81487,104930
2025-04-14 12:31:08.270,103194,20633,22446,81476,104900
2025-04-14 12:31:08.279,103191,20635,22445,81444,104887
2025-04-14 12:31:08.290,103183,20633,22450,81455,104885
2025-04-14 12:31:08.298,103172,20630,22444,81461,104867
2025-04-14 12:31:08.311,103169,20626,22447,81454,104880
2025-04-14 12:31:08.329,103178,20629,22449,81443,104879
2025-04-14 12:31:08.331,103182,20627,22449,81438,104870
2025-04-14 12:31:08.338,103181,20621,22443,81430,104861
2025-04-14 12:31:08.350,103191,20622,22448,81414,104854
2025-04-14 12:31:08.358,103180,20625,22444,81408,104848
2025-04-14 12:31:08.370,103182,20624,22443,81404,104838
2025-04-14 12:31:08.393,103169,20629,22448,81404,104835
2025-04-14 12:31:08.394,103157,20635,22458,81411,104836
2025-04-14 12:31:08.402,103141,20643,22464,81432,104845
2025-04-14 12:31:08.410,103148,20654,22476,81465,104869
2025-04-14 12:31:08.422,103138,20657,22480,81484,104912
2025-04-14 12:31:08.430,103156,20668,22489,81512,104929
2025-04-14 12:31:08.457,103172,20677,22491,81545,104967
2025-04-14 12:31:08.458,103192,20681,22504,81570,104998
2025-04-14 12:31:08.463,103221,20683,22504,81608,105032
2025-04-14 12:31:08.470,103234,20686,22505,81618,105049
2025-04-14 12:31:08.482,103243,20685,22505,81621,105066
2025-04-14 12:31:08.490,103237,20684,22500,81643,105086
2025-04-14 12:31:08.502,103234,20672,22492,81646,105081
2025-04-14 12:31:08.521,103221,20664,22486,81642,105081
2025-04-14 12:31:08.522,103221,20649,22472,81622,105077
2025-04-14 12:31:08.530,103211,20627,22456,81624,105069
2025-04-14 12:31:08.542,103185,20606,22438,81623,105061
2025-04-14 12:31:08.550,103198,20591,22418,81593,105062
2025-04-14 12:31:08.562,103219,20576,22405,81589,105050
2025-04-14 12:31:08.585,103201,20558,22393,81582,105018
2025-04-14 12:31:08.586,103189,20539,22386,81585,105031
2025-04-14 12:31:08.590,103205,20529,22371,81579,105030
2025-04-14 12:31:08.602,103210,20519,22357,81575,105028
2025-04-14 12:31:08.610,103210,20519,22357,81575,105028
2025-04-14 12:31:08.622,103228,20510,22355,81578,105014
2025-04-14 12:31:08.630,103227,20511,22347,81584,105035
2025-04-14 12:31:08.648,103238,20505,22343,81578,105027
2025-04-14 12:31:08.654,103226,20498,22341,81586,105035
2025-04-14 12:31:08.663,103229,20501,22343,81592,105044
2025-04-14 12:31:08.675,103214,20495,22336,81585,105020
2025-04-14 12:31:08.681,103221,20493,22330,81581,105041
2025-04-14 12:31:08.694,103218,20498,22329,81568,105034
2025-04-14 12:31:08.712,103223,20505,22328,81577,105028
2025-04-14 12:31:08.714,103217,20497,22326,81581,105021
2025-04-14 12:31:08.721,103206,20501,22326,81587,105013
2025-04-14 12:31:08.734,103198,20506,22329,81589,105016
2025-04-14 12:31:08.746,103209,20509,22333,81584,105015
2025-04-14 12:31:08.747,103209,20509,22333,81584,105015
2025-04-14 12:31:08.754,103184,20515,22329,81590,105023
2025-04-14 12:31:08.776,103171,20512,22334,81588,105022
2025-04-14 12:31:08.777,103154,20515,22329,81589,105008
2025-04-14 12:31:08.782,103140,20514,22331,81582,105007
2025-04-14 12:31:08.793,103111,20506,22331,81579,105021
2025-04-14 12:31:08.802,103100,20509,22328,81579,105007
2025-04-14 12:31:08.814,103086,20503,22323,81570,105014
2025-04-14 12:31:08.822,103061,20501,22315,81566,104998
2025-04-14 12:31:08.843,103037,20492,22312,81561,105002
2025-04-14 12:31:08.845,103047,20494,22314,81552,105014
2025-04-14 12:31:08.854,103037,20488,22307,81562,105017
2025-04-14 12:31:08.862,103029,20493,22308,81551,105020
2025-04-14 12:31:08.874,103038,20484,22302,81556,105026
2025-04-14 12:31:08.883,103048,20484,22303,81574,105034
2025-04-14 12:31:08.907,103049,20486,22295,81577,105041
2025-04-14 12:31:08.908,103062,20484,22302,81586,105059
2025-04-14 12:31:08.914,103067,20490,22310,81582,105070
2025-04-14 12:31:08.926,103073,20493,22305,81594,105084
2025-04-14 12:31:08.934,103080,20493,22308,81611,105084
2025-04-14 12:31:08.946,103073,20493,22312,81612,105111
2025-04-14 12:31:08.954,103076,20497,22310,81612,105102
2025-04-14 12:31:08.971,103070,20503,22309,81601,105092
2025-04-14 12:31:08.974,103070,20501,22311,81603,105094
2025-04-14 12:31:08.986,103059,20505,22310,81596,105081
2025-04-14 12:31:08.994,103044,20502,22311,81586,105084
2025-04-14 12:31:09.007,103039,20504,22312,81584,105072
2025-04-14 12:31:09.014,103035,20502,22313,81582,105049
2025-04-14 12:31:09.034,103042,20508,22312,81579,105045
2025-04-14 12:31:09.036,103010,20511,22313,81581,105047
2025-04-14 12:31:09.047,103011,20511,22315,81566,105055
2025-04-14 12:31:09.053,102989,20514,22314,81573,105029
2025-04-14 12:31:09.066,102985,20510,22317,81557,105026
2025-04-14 12:31:09.075,102986,20516,22316,81563,105030
2025-04-14 12:31:09.098,102980,20519,22319,81563,105026
2025-04-14 12:31:09.100,102981,20519,22319,81570,105031
2025-04-14 12:31:09.107,102985,20523,22319,81583,105038
2025-04-14 12:31:09.114,102978,20523,22325,81584,105037
2025-04-14 12:31:09.126,102969,20523,22325,81595,105046
2025-04-14 12:31:09.137,102977,20525,22322,81587,105059
2025-04-14 12:31:09.146,102973,20531,22329,81593,105057
2025-04-14 12:31:09.161,102973,20531,22329,81593,105057
2025-04-14 12:31:09.162,102981,20534,22328,81607,105061
2025-04-14 12:31:09.166,102964,20533,22332,81612,105073
2025-04-14 12:31:09.178,102966,20533,22331,81611,105067
2025-04-14 12:31:09.185,102973,20536,22333,81616,105074
2025-04-14 12:31:09.198,102953,20538,22334,81630,105083
2025-04-14 12:31:09.206,102946,20538,22339,81644,105099
2025-04-14 12:31:09.226,102935,20542,22341,81651,105091
2025-04-14 12:31:09.228,102920,20550,22339,81687,105108
2025-04-14 12:31:09.237,102917,20547,22344,81686,105138
2025-04-14 12:31:09.246,102907,20555,22351,81716,105151
2025-04-14 12:31:09.258,102899,20556,22350,81747,105163
2025-04-14 12:31:09.265,102883,20561,22350,81754,105181
2025-04-14 12:31:09.290,102886,20557,22354,81766,105193
2025-04-14 12:31:09.291,102889,20548,22343,81742,105207
2025-04-14 12:31:09.298,102879,20544,22338,81725,105181
2025-04-14 12:31:09.306,102870,20524,22323,81707,105158
2025-04-14 12:31:09.318,102856,20508,22304,81700,105149
2025-04-14 12:31:09.326,102852,20487,22289,81662,105140
2025-04-14 12:31:09.338,102842,20459,22267,81626,105102
2025-04-14 12:31:09.354,102831,20436,22248,81581,105050
2025-04-14 12:31:09.358,102809,20414,22230,81552,105029
2025-04-14 12:31:09.366,102804,20396,22210,81524,104990
2025-04-14 12:31:09.378,102789,20374,22192,81488,104961
2025-04-14 12:31:09.390,102785,20355,22179,81461,104929
2025-04-14 12:31:09.398,102775,20345,22163,81440,104901
2025-04-14 12:31:09.418,102778,20329,22152,81427,104885
2025-04-14 12:31:09.419,102770,20316,22143,81408,104890
2025-04-14 12:31:09.429,102785,20310,22137,81406,104875
2025-04-14 12:31:09.438,102789,20307,22136,81401,104861
2025-04-14 12:31:09.450,102782,20302,22127,81402,104858
2025-04-14 12:31:09.457,102793,20301,22128,81407,104869
2025-04-14 12:31:09.482,102787,20303,22125,81407,104866
2025-04-14 12:31:09.483,102797,20304,22127,81410,104870
2025-04-14 12:31:09.491,102802,20305,22127,81410,104869
2025-04-14 12:31:09.497,102804,20304,22126,81416,104867
2025-04-14 12:31:09.509,102801,20311,22131,81422,104876
2025-04-14 12:31:09.518,102803,20316,22136,81422,104868
2025-04-14 12:31:09.529,102813,20320,22137,81428,104858
2025-04-14 12:31:09.545,102821,20321,22139,81434,104872
2025-04-14 12:31:09.550,102818,20329,22141,81422,104882
2025-04-14 12:31:09.557,102825,20331,22144,81431,104882
2025-04-14 12:31:09.569,102832,20330,22145,81431,104875
2025-04-14 12:31:09.577,102816,20332,22140,81440,104876
2025-04-14 12:31:09.590,102798,20336,22147,81436,104877
2025-04-14 12:31:09.608,102795,20337,22143,81449,104866
2025-04-14 12:31:09.610,102780,20334,22143,81469,104885
2025-04-14 12:31:09.618,102769,20341,22143,81489,104907
2025-04-14 12:31:09.630,102765,20330,22147,81500,104911
2025-04-14 12:31:09.641,102749,20332,22141,81510,104933
2025-04-14 12:31:09.650,102763,20327,22146,81549,104948
2025-04-14 12:31:09.672,102756,20331,22147,81571,104979
2025-04-14 12:31:09.673,102733,20334,22144,81597,105014
2025-04-14 12:31:09.682,102731,20333,22148,81627,105026
2025-04-14 12:31:09.689,102719,20331,22148,81673,105058
2025-04-14 12:31:09.701,102702,20332,22149,81698,105082
2025-04-14 12:31:09.710,102683,20336,22161,81725,105114
2025-04-14 12:31:09.742,102666,20342,22159,81741,105145
2025-04-14 12:31:09.743,102663,20345,22158,81762,105168
2025-04-14 12:31:09.744,102652,20345,22166,81770,105182
2025-04-14 12:31:09.750,102652,20349,22166,81777,105173
2025-04-14 12:31:09.761,102641,20347,22164,81760,105183
2025-04-14 12:31:09.771,102646,20345,22157,81753,105160
2025-04-14 12:31:09.781,102645,20343,22159,81741,105144
2025-04-14 12:31:09.789,102656,20346,22156,81707,105137
2025-04-14 12:31:09.806,102652,20346,22157,81680,105093
2025-04-14 12:31:09.809,102657,20339,22155,81650,105077
2025-04-14 12:31:09.822,102662,20340,22153,81639,105041
2025-04-14 12:31:09.829,102661,20337,22153,81627,105030
2025-04-14 12:31:09.842,102661,20343,22153,81614,105017
2025-04-14 12:31:09.852,102677,20339,22150,81610,105009
2025-04-14 12:31:09.871,102673,20337,22154,81602,104997
2025-04-14 12:31:09.874,102684,20348,22154,81615,104997
2025-04-14 12:31:09.881,102681,20346,22154,81618,105008
2025-04-14 12:31:09.894,102686,20353,22155,81611,104992
2025-04-14 12:31:09.902,102696,20351,22159,81623,105012
2025-04-14 12:31:09.914,102693,20359,22158,81627,105011
2025-04-14 12:31:09.934,102687,20362,22165,81636,105007
2025-04-14 12:31:09.935,102673,20372,22170,81659,105027
2025-04-14 12:31:09.942,102680,20369,22175,81658,105034
2025-04-14 12:31:09.954,102664,20374,22175,81673,105054
2025-04-14 12:31:09.957,102664,20374,22175,81673,105054
2025-04-14 12:31:09.961,102654,20384,22184,81721,105075
2025-04-14 12:31:09.973,102641,20390,22189,81734,105083
2025-04-14 12:31:09.981,102627,20399,22192,81752,105114
2025-04-14 12:31:09.999,102607,20399,22190,81753,105114
2025-04-14 12:31:10.001,102604,20399,22199,81778,105155
2025-04-14 12:31:10.014,102604,20408,22208,81793,105147
2025-04-14 12:31:10.021,102598,20409,22212,81806,105175
2025-04-14 12:31:10.034,102593,20414,22217,81835,105202
2025-04-14 12:31:10.041,102600,20417,22221,81850,105206
2025-04-14 12:31:10.063,102599,20417,22227,81850,105235
2025-04-14 12:31:10.064,102606,20427,22226,81866,105239
2025-04-14 12:31:10.073,102598,20429,22232,81871,105241
2025-04-14 12:31:10.081,102582,20428,22230,81859,105245
2025-04-14 12:31:10.094,102590,20429,22226,81843,105249
2025-04-14 12:31:10.106,102579,20422,22224,81811,105223
2025-04-14 12:31:10.126,102577,20409,22215,81784,105200
2025-04-14 12:31:10.127,102566,20398,22202,81744,105170
2025-04-14 12:31:10.133,102555,20380,22186,81714,105121
2025-04-14 12:31:10.145,102560,20360,22171,81666,105069
2025-04-14 12:31:10.154,102545,20335,22154,81625,105031
2025-04-14 12:31:10.165,102555,20307,22127,81580,104987
2025-04-14 12:31:10.174,102556,20292,22117,81560,104959
2025-04-14 12:31:10.190,102553,20269,22093,81525,104947
2025-04-14 12:31:10.193,102575,20252,22072,81490,104910
2025-04-14 12:31:10.206,102587,20231,22059,81456,104869
2025-04-14 12:31:10.214,102588,20220,22045,81441,104858
2025-04-14 12:31:10.226,102607,20199,22037,81419,104845
2025-04-14 12:31:10.234,102606,20197,22024,81421,104826
2025-04-14 12:31:10.253,102623,20188,22023,81410,104820
2025-04-14 12:31:10.255,102638,20188,22019,81413,104822
2025-04-14 12:31:10.265,102644,20188,22018,81417,104820
2025-04-14 12:31:10.273,102665,20190,22016,81428,104831
2025-04-14 12:31:10.286,102686,20197,22022,81436,104835
2025-04-14 12:31:10.293,102691,20202,22021,81449,104852
2025-04-14 12:31:10.318,102705,20205,22031,81461,104863
2025-04-14 12:31:10.320,102723,20213,22035,81472,104884
2025-04-14 12:31:10.326,102731,20221,22035,81479,104900
2025-04-14 12:31:10.334,102740,20225,22042,81497,104895
2025-04-14 12:31:10.346,102756,20237,22050,81502,104922
2025-04-14 12:31:10.358,102771,20241,22054,81515,104930
2025-04-14 12:31:10.365,102793,20254,22066,81531,104942
2025-04-14 12:31:10.382,102801,20256,22062,81526,104935
2025-04-14 12:31:10.385,102818,20269,22064,81543,104957
2025-04-14 12:31:10.397,102812,20269,22066,81546,104964
2025-04-14 12:31:10.405,102817,20267,22070,81547,104969
2025-04-14 12:31:10.417,102806,20280,22073,81544,104966
2025-04-14 12:31:10.426,102797,20276,22068,81538,104960
2025-04-14 12:31:10.445,102800,20273,22067,81522,104957
2025-04-14 12:31:10.447,102795,20272,22065,81505,104925
2025-04-14 12:31:10.457,102782,20271,22062,81515,104923
2025-04-14 12:31:10.465,102763,20262,22055,81497,104917
2025-04-14 12:31:10.478,102760,20264,22052,81481,104919
2025-04-14 12:31:10.486,102756,20259,22052,81465,104895
2025-04-14 12:31:10.509,102753,20262,22045,81469,104875
2025-04-14 12:31:10.511,102739,20258,22044,81461,104873
2025-04-14 12:31:10.518,102750,20257,22044,81460,104879
2025-04-14 12:31:10.525,102754,20259,22045,81451,104878
2025-04-14 12:31:10.538,102749,20263,22048,81449,104864
2025-04-14 12:31:10.545,102751,20260,22045,81446,104869
2025-04-14 12:31:10.558,102766,20261,22045,81438,104865
2025-04-14 12:31:10.574,102768,20266,22053,81444,104863
2025-04-14 12:31:10.577,102778,20269,22050,81441,104874
2025-04-14 12:31:10.585,102773,20275,22059,81452,104866
2025-04-14 12:31:10.597,102778,20283,22055,81460,104865
2025-04-14 12:31:10.609,102791,20285,22064,81471,104872
2025-04-14 12:31:10.617,102802,20295,22065,81489,104889
2025-04-14 12:31:10.637,102803,20303,22070,81475,104916
2025-04-14 12:31:10.639,102829,20303,22079,81496,104912
2025-04-14 12:31:10.650,102843,20314,22082,81516,104915
2025-04-14 12:31:10.658,102851,20314,22087,81522,104933
2025-04-14 12:31:10.670,102860,20320,22093,81518,104942
2025-04-14 12:31:10.677,102868,20333,22093,81528,104946
2025-04-14 12:31:10.701,102866,20338,22100,81523,104941
2025-04-14 12:31:10.702,102865,20343,22104,81536,104948
2025-04-14 12:31:10.710,102868,20342,22106,81535,104941
2025-04-14 12:31:10.718,102857,20344,22109,81540,104953
2025-04-14 12:31:10.730,102879,20357,22113,81540,104951
2025-04-14 12:31:10.738,102870,20358,22116,81544,104957
2025-04-14 12:31:10.749,102861,20366,22119,81544,104977
2025-04-14 12:31:10.765,102866,20366,22123,81537,104971
2025-04-14 12:31:10.766,102866,20366,22123,81537,104971
2025-04-14 12:31:10.770,102868,20371,22125,81518,104948
2025-04-14 12:31:10.777,102864,20378,22135,81511,104953
2025-04-14 12:31:10.789,102871,20382,22131,81509,104947
2025-04-14 12:31:10.798,102883,20385,22137,81500,104942
2025-04-14 12:31:10.810,102872,20384,22141,81502,104948
2025-04-14 12:31:10.830,102878,20398,22141,81498,104942
2025-04-14 12:31:10.831,102872,20398,22140,81483,104948
2025-04-14 12:31:10.841,102870,20404,22151,81501,104937
2025-04-14 12:31:10.849,102888,20403,22155,81491,104941
2025-04-14 12:31:10.861,102894,20414,22161,81502,104931
2025-04-14 12:31:10.870,102900,20420,22171,81518,104966
2025-04-14 12:31:10.895,102917,20429,22168,81516,104965
2025-04-14 12:31:10.896,102934,20437,22177,81525,104984
2025-04-14 12:31:10.901,102947,20444,22185,81535,104984
2025-04-14 12:31:10.910,102977,20446,22184,81548,105018
2025-04-14 12:31:10.921,102969,20452,22190,81552,105018
2025-04-14 12:31:10.930,102987,20456,22195,81566,105026
2025-04-14 12:31:10.941,102996,20465,22203,81575,105022
2025-04-14 12:31:10.959,103009,20466,22200,81580,105051
2025-04-14 12:31:10.961,103012,20467,22201,81569,105041
2025-04-14 12:31:10.970,103003,20466,22196,81577,105021
2025-04-14 12:31:10.981,102990,20455,22190,81554,105027
2025-04-14 12:31:10.990,102975,20443,22178,81541,105030
2025-04-14 12:31:11.001,102946,20431,22168,81531,105003
2025-04-14 12:31:11.022,102922,20411,22157,81524,104982
2025-04-14 12:31:11.024,102920,20390,22143,81506,104975
2025-04-14 12:31:11.030,102904,20377,22129,81485,104964
2025-04-14 12:31:11.041,102902,20365,22115,81474,104947
2025-04-14 12:31:11.050,102870,20353,22104,81468,104931
2025-04-14 12:31:11.062,102872,20335,22097,81451,104928
2025-04-14 12:31:11.069,102862,20331,22087,81452,104922
2025-04-14 12:31:11.089,102869,20326,22085,81448,104923
2025-04-14 12:31:11.094,102864,20317,22080,81455,104908
2025-04-14 12:31:11.102,102879,20316,22079,81465,104921
2025-04-14 12:31:11.114,102886,20320,22081,81472,104932
2025-04-14 12:31:11.122,102894,20319,22078,81482,104938
2025-04-14 12:31:11.133,102905,20326,22076,81493,104951
2025-04-14 12:31:11.154,102914,20329,22087,81490,104955
2025-04-14 12:31:11.155,102920,20332,22088,81494,104974
2025-04-14 12:31:11.161,102927,20336,22088,81496,104950
2025-04-14 12:31:11.174,102931,20342,22093,81489,104967
2025-04-14 12:31:11.181,102933,20346,22095,81495,104951
2025-04-14 12:31:11.194,102941,20350,22097,81486,104956
2025-04-14 12:31:11.202,102933,20353,22097,81481,104952
2025-04-14 12:31:11.217,102937,20356,22100,81476,104929
2025-04-14 12:31:11.221,102909,20358,22101,81468,104922
2025-04-14 12:31:11.234,102913,20364,22102,81458,104927
2025-04-14 12:31:11.241,102894,20361,22102,81450,104906
2025-04-14 12:31:11.253,102884,20357,22098,81433,104899
2025-04-14 12:31:11.262,102867,20353,22096,81418,104858
2025-04-14 12:31:11.281,102847,20354,22088,81409,104848
2025-04-14 12:31:11.282,102832,20346,22083,81378,104830
2025-04-14 12:31:11.294,102819,20340,22082,81361,104810
2025-04-14 12:31:11.301,102790,20335,22078,81354,104806
2025-04-14 12:31:11.313,102782,20322,22073,81337,104774
2025-04-14 12:31:11.322,102776,20319,22067,81322,104751
2025-04-14 12:31:11.345,102755,20313,22058,81312,104766
2025-04-14 12:31:11.346,102756,20304,22055,81292,104734
2025-04-14 12:31:11.354,102746,20304,22050,81285,104738
2025-04-14 12:31:11.365,102742,20294,22040,81251,104709
2025-04-14 12:31:11.369,102742,20294,22040,81251,104709
2025-04-14 12:31:11.374,102775,20279,22030,81177,104656
2025-04-14 12:31:11.385,102786,20274,22019,81121,104622
2025-04-14 12:31:11.392,102812,20263,22015,81071,104574
2025-04-14 12:31:11.409,102821,20261,22009,81019,104511
2025-04-14 12:31:11.412,102837,20253,22003,80960,104460
2025-04-14 12:31:11.425,102849,20249,21998,80922,104404
2025-04-14 12:31:11.433,102841,20250,21998,80878,104361
2025-04-14 12:31:11.445,102842,20246,21995,80860,104343
2025-04-14 12:31:11.453,102832,20244,21993,80828,104309
2025-04-14 12:31:11.473,102824,20246,21997,80825,104282
2025-04-14 12:31:11.474,102796,20251,22007,80860,104301
2025-04-14 12:31:11.485,102781,20262,22009,80901,104317
2025-04-14 12:31:11.493,102750,20273,22018,80935,104346
2025-04-14 12:31:11.505,102725,20279,22019,80948,104385
2025-04-14 12:31:11.513,102711,20283,22026,80981,104398
2025-04-14 12:31:11.537,102695,20291,22032,80999,104415
2025-04-14 12:31:11.538,102683,20299,22039,81020,104436
2025-04-14 12:31:11.545,102669,20301,22037,81017,104460
2025-04-14 12:31:11.554,102657,20306,22042,81025,104446
2025-04-14 12:31:11.565,102646,20300,22044,81033,104455
2025-04-14 12:31:11.573,102642,20307,22046,81028,104450
2025-04-14 12:31:11.585,102640,20312,22047,81020,104453
2025-04-14 12:31:11.601,102632,20313,22048,81025,104451
2025-04-14 12:31:11.605,102643,20315,22051,81026,104446
2025-04-14 12:31:11.617,102648,20320,22051,81020,104444
2025-04-14 12:31:11.625,102641,20321,22061,81025,104456
2025-04-14 12:31:11.638,102649,20320,22058,81013,104449
2025-04-14 12:31:11.645,102643,20325,22064,81009,104457
2025-04-14 12:31:11.667,102649,20325,22062,81009,104456
2025-04-14 12:31:11.669,102665,20321,22065,80967,104452
2025-04-14 12:31:11.677,102658,20329,22066,80951,104431
2025-04-14 12:31:11.686,102661,20325,22065,80943,104400
2025-04-14 12:31:11.698,102657,20326,22063,80907,104374
2025-04-14 12:31:11.705,102667,20319,22060,80865,104346
2025-04-14 12:31:11.732,102677,20320,22060,80848,104325
2025-04-14 12:31:11.734,102669,20319,22064,80838,104286
2025-04-14 12:31:11.738,102676,20322,22061,80821,104286
2025-04-14 12:31:11.745,102675,20323,22060,80791,104272
2025-04-14 12:31:11.757,102700,20316,22059,80763,104256
2025-04-14 12:31:11.765,102690,20318,22057,80724,104215
2025-04-14 12:31:11.777,102701,20312,22054,80690,104192
2025-04-14 12:31:11.798,102693,20311,22054,80654,104160
2025-04-14 12:31:11.800,102700,20317,22055,80643,104121
2025-04-14 12:31:11.806,102707,20310,22052,80606,104115
2025-04-14 12:31:11.817,102703,20310,22048,80578,104080
2025-04-14 12:31:11.825,102708,20304,22041,80556,104052
2025-04-14 12:31:11.837,102696,20296,22038,80536,104025
2025-04-14 12:31:11.863,102692,20286,22024,80518,104003
2025-04-14 12:31:11.864,102684,20278,22019,80526,104001
2025-04-14 12:31:11.869,102674,20264,22015,80536,103993
2025-04-14 12:31:11.877,102649,20251,21997,80526,104011
2025-04-14 12:31:11.889,102635,20236,21984,80541,104001
2025-04-14 12:31:11.897,102618,20224,21973,80565,104028
2025-04-14 12:31:11.909,102599,20213,21971,80585,104042
2025-04-14 12:31:11.928,102569,20200,21963,80607,104059
2025-04-14 12:31:11.930,102548,20201,21954,80627,104084
2025-04-14 12:31:11.938,102522,20204,21959,80671,104110
2025-04-14 12:31:11.949,102498,20203,21961,80721,104149
2025-04-14 12:31:11.958,102472,20198,21962,80767,104202
2025-04-14 12:31:11.969,102468,20205,21970,80839,104253
2025-04-14 12:31:11.976,102447,20214,21979,80882,104314
2025-04-14 12:31:11.994,102453,20222,21980,80952,104361
2025-04-14 12:31:11.997,102456,20231,21994,81009,104419
2025-04-14 12:31:12.009,102454,20243,22005,81067,104474
2025-04-14 12:31:12.017,102463,20254,22011,81109,104527
2025-04-14 12:31:12.030,102458,20259,22022,81138,104570
2025-04-14 12:31:12.037,102468,20266,22030,81168,104602
2025-04-14 12:31:12.064,102486,20271,22032,81158,104619
2025-04-14 12:31:12.066,102492,20271,22036,81143,104611
2025-04-14 12:31:12.069,102496,20273,22032,81099,104590
2025-04-14 12:31:12.078,102503,20270,22035,81059,104558
2025-04-14 12:31:12.089,102509,20271,22029,81022,104529
2025-04-14 12:31:12.101,102526,20267,22028,80964,104486
2025-04-14 12:31:12.109,102536,20258,22021,80918,104423
2025-04-14 12:31:12.134,102544,20254,22022,80871,104374
2025-04-14 12:31:12.135,102553,20252,22016,80814,104320
2025-04-14 12:31:12.141,102569,20247,22008,80755,104265
2025-04-14 12:31:12.150,102561,20240,21998,80703,104201
2025-04-14 12:31:12.162,102557,20236,21989,80656,104158
2025-04-14 12:31:12.170,102561,20232,21986,80607,104103
2025-04-14 12:31:12.181,102553,20226,21982,80573,104068
2025-04-14 12:31:12.203,102554,20217,21975,80531,104033
2025-04-14 12:31:12.205,102555,20213,21969,80506,104013
2025-04-14 12:31:12.209,102556,20217,21967,80492,103979
2025-04-14 12:31:12.221,102547,20220,21975,80498,103980
2025-04-14 12:31:12.229,102548,20225,21976,80502,103987
2025-04-14 12:31:12.241,102552,20230,21978,80504,103986
2025-04-14 12:31:12.249,102554,20236,21987,80544,104006
2025-04-14 12:31:12.273,102543,20250,21996,80581,104041
2025-04-14 12:31:12.274,102542,20257,22003,80600,104074
2025-04-14 12:31:12.281,102549,20270,22017,80651,104109
2025-04-14 12:31:12.290,102543,20283,22024,80669,104143
2025-04-14 12:31:12.301,102540,20289,22035,80696,104167
2025-04-14 12:31:12.309,102552,20298,22042,80722,104190
2025-04-14 12:31:12.321,102524,20301,22047,80718,104199
2025-04-14 12:31:12.350,102494,20307,22052,80731,104203
2025-04-14 12:31:12.352,102458,20309,22054,80724,104199
2025-04-14 12:31:12.354,102428,20313,22061,80709,104170
2025-04-14 12:31:12.361,102396,20319,22062,80715,104174
2025-04-14 12:31:12.373,102382,20316,22070,80691,104164
2025-04-14 12:31:12.377,102382,20316,22070,80691,104164
2025-04-14 12:31:12.382,102369,20326,22077,80686,104144
2025-04-14 12:31:12.393,102353,20329,22075,80674,104132
2025-04-14 12:31:12.422,102350,20333,22078,80673,104129
2025-04-14 12:31:12.424,102341,20332,22086,80659,104105
2025-04-14 12:31:12.425,102335,20333,22088,80653,104112
2025-04-14 12:31:12.434,102346,20337,22085,80648,104099
2025-04-14 12:31:12.441,102332,20340,22086,80635,104084
2025-04-14 12:31:12.453,102339,20341,22093,80638,104081
2025-04-14 12:31:12.462,102349,20341,22099,80629,104066
2025-04-14 12:31:12.489,102351,20348,22101,80614,104061
2025-04-14 12:31:12.491,102346,20348,22098,80622,104051
2025-04-14 12:31:12.493,102347,20353,22110,80605,104043
2025-04-14 12:31:12.501,102348,20363,22112,80610,104043
2025-04-14 12:31:12.512,102347,20362,22114,80605,104036
2025-04-14 12:31:12.521,102344,20363,22114,80603,104045
2025-04-14 12:31:12.533,102339,20372,22123,80602,104033
2025-04-14 12:31:12.554,102342,20382,22131,80607,104059
2025-04-14 12:31:12.555,102338,20375,22131,80623,104043
2025-04-14 12:31:12.561,102322,20388,22141,80639,104060
2025-04-14 12:31:12.572,102321,20392,22143,80627,104077
2025-04-14 12:31:12.581,102322,20401,22151,80635,104072
2025-04-14 12:31:12.593,102317,20411,22155,80665,104086
2025-04-14 12:31:12.617,102317,20411,22166,80669,104097
2025-04-14 12:31:12.619,102309,20416,22174,80687,104117
2025-04-14 12:31:12.625,102297,20424,22176,80688,104126
2025-04-14 12:31:12.633,102280,20421,22179,80689,104128
2025-04-14 12:31:12.645,102275,20433,22185,80682,104133
2025-04-14 12:31:12.652,102264,20431,22184,80672,104117
2025-04-14 12:31:12.664,102242,20428,22179,80656,104102
2025-04-14 12:31:12.683,102228,20412,22177,80641,104093
2025-04-14 12:31:12.685,102221,20407,22171,80626,104061
2025-04-14 12:31:12.693,102193,20394,22157,80602,104029
2025-04-14 12:31:12.704,102173,20372,22143,80570,104012
2025-04-14 12:31:12.713,102151,20360,22130,80556,103982
2025-04-14 12:31:12.725,102125,20342,22121,80531,103967
2025-04-14 12:31:12.747,102089,20326,22109,80520,103957
2025-04-14 12:31:12.749,102059,20306,22094,80512,103923
2025-04-14 12:31:12.753,102050,20295,22088,80514,103914
2025-04-14 12:31:12.764,102032,20291,22081,80517,103933
2025-04-14 12:31:12.774,102020,20280,22075,80537,103943
2025-04-14 12:31:12.784,102014,20275,22069,80547,103956
2025-04-14 12:31:12.793,102026,20272,22071,80570,103972
2025-04-14 12:31:12.812,102035,20273,22075,80599,103992
2025-04-14 12:31:12.814,102045,20275,22076,80623,104024
2025-04-14 12:31:12.825,102069,20279,22079,80658,104046
2025-04-14 12:31:12.832,102085,20284,22083,80678,104065
2025-04-14 12:31:12.845,102107,20287,22091,80702,104090
2025-04-14 12:31:12.853,102122,20293,22094,80707,104106
2025-04-14 12:31:12.877,102142,20297,22099,80709,104099
2025-04-14 12:31:12.878,102167,20303,22103,80711,104123
2025-04-14 12:31:12.884,102190,20306,22111,80719,104131
2025-04-14 12:31:12.897,102198,20318,22109,80710,104109
2025-04-14 12:31:12.905,102206,20324,22116,80696,104115
2025-04-14 12:31:12.917,102216,20325,22116,80689,104104
2025-04-14 12:31:12.925,102239,20326,22123,80664,104100
2025-04-14 12:31:12.941,102244,20323,22118,80655,104059
2025-04-14 12:31:12.945,102249,20326,22118,80645,104046
2025-04-14 12:31:12.956,102257,20328,22120,80631,104036
2025-04-14 12:31:12.966,102254,20322,22117,80618,104016
2025-04-14 12:31:12.976,102270,20329,22118,80592,103991
2025-04-14 12:31:12.985,102266,20322,22113,80585,103993
2025-04-14 12:31:13.004,102265,20316,22110,80569,103963
2025-04-14 12:31:13.006,102254,20317,22105,80556,103945
2025-04-14 12:31:13.016,102243,20313,22101,80544,103951
2025-04-14 12:31:13.024,102246,20313,22102,80534,103944
2025-04-14 12:31:13.037,102239,20310,22103,80529,103924
2025-04-14 12:31:13.044,102234,20313,22101,80524,103932
2025-04-14 12:31:13.068,102226,20314,22105,80538,103922
2025-04-14 12:31:13.069,102228,20312,22105,80540,103922
2025-04-14 12:31:13.077,102222,20313,22108,80542,103934
2025-04-14 12:31:13.084,102204,20314,22108,80557,103930
2025-04-14 12:31:13.096,102204,20320,22109,80555,103938
2025-04-14 12:31:13.105,102196,20325,22117,80566,103947
2025-04-14 12:31:13.116,102200,20327,22118,80578,103961
2025-04-14 12:31:13.132,102199,20332,22124,80592,103969
2025-04-14 12:31:13.137,102199,20339,22131,80603,103989
2025-04-14 12:31:13.145,102210,20342,22131,80606,103998
2025-04-14 12:31:13.158,102202,20343,22138,80619,103985
2025-04-14 12:31:13.165,102199,20352,22142,80634,104001
2025-04-14 12:31:13.176,102204,20354,22141,80634,104006
2025-04-14 12:31:13.180,102204,20354,22141,80634,104006
2025-04-14 12:31:13.195,102208,20360,22155,80637,104018
2025-04-14 12:31:13.197,102215,20366,22158,80634,104014
2025-04-14 12:31:13.209,102220,20373,22159,80618,103992
2025-04-14 12:31:13.216,102211,20371,22166,80627,104014
2025-04-14 12:31:13.228,102222,20373,22163,80614,104007
2025-04-14 12:31:13.237,102208,20377,22164,80610,104000
2025-04-14 12:31:13.259,102225,20375,22167,80599,103981
2025-04-14 12:31:13.260,102227,20380,22169,80605,104001
2025-04-14 12:31:13.268,102209,20380,22170,80577,103976
2025-04-14 12:31:13.276,102213,20384,22171,80574,103964
2025-04-14 12:31:13.289,102212,20387,22172,80570,103961
2025-04-14 12:31:13.296,102220,20389,22173,80552,103951
2025-04-14 12:31:13.322,102215,20392,22180,80549,103947
2025-04-14 12:31:13.324,102216,20397,22180,80543,103946
2025-04-14 12:31:13.328,102220,20393,22187,80546,103925
2025-04-14 12:31:13.337,102215,20394,22186,80538,103927
2025-04-14 12:31:13.349,102221,20398,22191,80532,103934
2025-04-14 12:31:13.356,102210,20410,22198,80535,103940
2025-04-14 12:31:13.368,102216,20413,22198,80542,103939
2025-04-14 12:31:13.386,102211,20418,22208,80537,103941
2025-04-14 12:31:13.389,102207,20424,22211,80542,103952
2025-04-14 12:31:13.396,102200,20428,22217,80563,103962
2025-04-14 12:31:13.409,102208,20436,22223,80585,103981
2025-04-14 12:31:13.417,102203,20446,22230,80592,104004
2025-04-14 12:31:13.428,102211,20453,22235,80616,104014
2025-04-14 12:31:13.452,102200,20459,22246,80636,104044
2025-04-14 12:31:13.453,102200,20470,22254,80659,104057
2025-04-14 12:31:13.456,102183,20478,22257,80682,104082
2025-04-14 12:31:13.468,102167,20482,22265,80682,104089
2025-04-14 12:31:13.477,102170,20485,22270,80686,104098
2025-04-14 12:31:13.488,102159,20483,22273,80681,104113
2025-04-14 12:31:13.497,102151,20480,22265,80679,104100
2025-04-14 12:31:13.516,102148,20467,22260,80643,104089
2025-04-14 12:31:13.520,102123,20458,22248,80622,104060
2025-04-14 12:31:13.529,102120,20442,22231,80598,104013
2025-04-14 12:31:13.540,102111,20417,22219,80558,103999
2025-04-14 12:31:13.548,102092,20402,22200,80522,103964
2025-04-14 12:31:13.561,102087,20373,22182,80491,103919
2025-04-14 12:31:13.581,102068,20357,22169,80460,103890
2025-04-14 12:31:13.582,102062,20336,22157,80445,103855
2025-04-14 12:31:13.590,102062,20321,22137,80416,103840
2025-04-14 12:31:13.601,102058,20305,22128,80410,103817
2025-04-14 12:31:13.608,102064,20300,22118,80388,103799
2025-04-14 12:31:13.621,102072,20287,22111,80390,103805
2025-04-14 12:31:13.628,102086,20282,22109,80388,103795
2025-04-14 12:31:13.647,102108,20281,22106,80405,103801
2025-04-14 12:31:13.649,102121,20283,22113,80418,103822
2025-04-14 12:31:13.660,102141,20286,22109,80439,103830
2025-04-14 12:31:13.668,102167,20288,22117,80464,103856
2025-04-14 12:31:13.680,102180,20295,22125,80491,103879
2025-04-14 12:31:13.689,102202,20304,22125,80513,103884
2025-04-14 12:31:13.710,102204,20313,22133,80553,103923
2025-04-14 12:31:13.712,102216,20322,22145,80565,103942
2025-04-14 12:31:13.721,102232,20338,22152,80599,103965
2025-04-14 12:31:13.728,102234,20339,22160,80617,103998
2025-04-14 12:31:13.740,102231,20353,22167,80640,104012
2025-04-14 12:31:13.749,102224,20359,22173,80667,104029
2025-04-14 12:31:13.776,102226,20365,22181,80671,104046
2025-04-14 12:31:13.777,102237,20369,22185,80698,104067
2025-04-14 12:31:13.781,102231,20377,22188,80702,104080
2025-04-14 12:31:13.793,102235,20377,22188,80703,104077
2025-04-14 12:31:13.801,102225,20373,22189,80692,104067
2025-04-14 12:31:13.813,102216,20369,22189,80674,104067
2025-04-14 12:31:13.820,102198,20367,22181,80652,104041
2025-04-14 12:31:13.840,102194,20360,22176,80628,104034
2025-04-14 12:31:13.842,102202,20355,22173,80605,104000
2025-04-14 12:31:13.853,102200,20352,22165,80583,103976
2025-04-14 12:31:13.860,102198,20343,22159,80560,103951
2025-04-14 12:31:13.873,102196,20342,22150,80526,103917
2025-04-14 12:31:13.881,102205,20340,22153,80516,103889
2025-04-14 12:31:13.904,102206,20335,22144,80486,103883
2025-04-14 12:31:13.905,102226,20327,22143,80463,103847
2025-04-14 12:31:13.913,102232,20330,22136,80441,103836
2025-04-14 12:31:13.921,102242,20333,22140,80437,103818
2025-04-14 12:31:13.932,102247,20329,22142,80414,103805
2025-04-14 12:31:13.941,102255,20333,22140,80411,103790
2025-04-14 12:31:13.953,102266,20330,22141,80408,103791
2025-04-14 12:31:13.968,102274,20340,22147,80395,103797
2025-04-14 12:31:13.972,102286,20333,22147,80400,103783
2025-04-14 12:31:13.985,102295,20347,22152,80397,103787
2025-04-14 12:31:13.986,102295,20347,22152,80397,103787
2025-04-14 12:31:13.992,102311,20354,22161,80398,103771
2025-04-14 12:31:14.001,102295,20362,22165,80400,103788
2025-04-14 12:31:14.012,102305,20365,22164,80398,103759
2025-04-14 12:31:14.033,102305,20364,22162,80391,103779
2025-04-14 12:31:14.034,102303,20367,22169,80373,103764
2025-04-14 12:31:14.041,102297,20367,22169,80357,103767
2025-04-14 12:31:14.052,102302,20372,22169,80344,103748
2025-04-14 12:31:14.065,102309,20372,22171,80327,103729
2025-04-14 12:31:14.072,102308,20374,22171,80312,103713
2025-04-14 12:31:14.097,102312,20374,22169,80288,103698
2025-04-14 12:31:14.098,102308,20368,22167,80274,103666
2025-04-14 12:31:14.104,102319,20373,22169,80260,103664
2025-04-14 12:31:14.113,102315,20375,22164,80249,103642
2025-04-14 12:31:14.125,102323,20374,22171,80232,103624
2025-04-14 12:31:14.133,102314,20380,22171,80218,103613
2025-04-14 12:31:14.144,102305,20377,22171,80216,103598
2025-04-14 12:31:14.160,102315,20383,22175,80193,103602
2025-04-14 12:31:14.165,102312,20377,22177,80182,103589
2025-04-14 12:31:14.172,102303,20383,22180,80184,103580
2025-04-14 12:31:14.185,102302,20388,22181,80179,103583
2025-04-14 12:31:14.192,102285,20394,22181,80170,103586
2025-04-14 12:31:14.205,102281,20396,22183,80175,103589
2025-04-14 12:31:14.224,102280,20395,22194,80193,103602
2025-04-14 12:31:14.226,102278,20397,22196,80194,103587
2025-04-14 12:31:14.233,102265,20404,22201,80196,103589
2025-04-14 12:31:14.244,102269,20409,22205,80206,103608
2025-04-14 12:31:14.252,102261,20412,22206,80231,103622
2025-04-14 12:31:14.265,102257,20418,22216,80221,103631
2025-04-14 12:31:14.272,102249,20423,22218,80229,103639
2025-04-14 12:31:14.288,102243,20422,22219,80211,103637
2025-04-14 12:31:14.293,102235,20420,22220,80211,103628
2025-04-14 12:31:14.304,102223,20415,22210,80190,103616
2025-04-14 12:31:14.313,102215,20405,22206,80159,103609
2025-04-14 12:31:14.324,102208,20398,22198,80140,103576
2025-04-14 12:31:14.333,102188,20386,22183,80124,103532
2025-04-14 12:31:14.351,102168,20365,22173,80098,103525
2025-04-14 12:31:14.353,102153,20353,22157,80067,103493
2025-04-14 12:31:14.364,102127,20331,22143,80063,103474
2025-04-14 12:31:14.372,102110,20310,22126,80061,103463
2025-04-14 12:31:14.384,102091,20295,22117,80061,103458
2025-04-14 12:31:14.397,102072,20287,22109,80052,103462
2025-04-14 12:31:14.417,102063,20269,22101,80067,103471
2025-04-14 12:31:14.419,102022,20259,22086,80084,103474
2025-04-14 12:31:14.425,102030,20251,22089,80096,103500
2025-04-14 12:31:14.437,102018,20246,22083,80119,103524
2025-04-14 12:31:14.444,102006,20245,22082,80143,103536
2025-04-14 12:31:14.456,101991,20242,22083,80162,103543
2025-04-14 12:31:14.464,101982,20243,22083,80179,103554
2025-04-14 12:31:14.481,101970,20247,22088,80214,103582
2025-04-14 12:31:14.485,101974,20249,22091,80241,103605
2025-04-14 12:31:14.497,101968,20257,22102,80272,103616
2025-04-14 12:31:14.504,101981,20271,22102,80302,103664
2025-04-14 12:31:14.516,101984,20280,22117,80337,103692
2025-04-14 12:31:14.524,101991,20287,22122,80379,103710
2025-04-14 12:31:14.545,102007,20301,22131,80407,103751
2025-04-14 12:31:14.547,102007,20309,22142,80433,103787
2025-04-14 12:31:14.556,102010,20317,22149,80460,103807
2025-04-14 12:31:14.564,102011,20332,22158,80488,103828
2025-04-14 12:31:14.576,102014,20340,22159,80508,103849
2025-04-14 12:31:14.584,102007,20341,22165,80532,103865
2025-04-14 12:31:14.608,102005,20350,22170,80546,103871
2025-04-14 12:31:14.610,102005,20353,22173,80555,103877
2025-04-14 12:31:14.617,101990,20359,22171,80563,103898
2025-04-14 12:31:14.624,101983,20355,22172,80571,103903
2025-04-14 12:31:14.637,101965,20353,22168,80573,103896
2025-04-14 12:31:14.644,101965,20353,22167,80573,103899
2025-04-14 12:31:14.656,101937,20350,22160,80580,103907
2025-04-14 12:31:14.673,101932,20344,22164,80594,103896
2025-04-14 12:31:14.676,101923,20338,22159,80606,103923
2025-04-14 12:31:14.689,101911,20337,22156,80605,103917
2025-04-14 12:31:14.696,101903,20338,22154,80612,103921
2025-04-14 12:31:14.708,101909,20336,22156,80633,103922
2025-04-14 12:31:14.717,101895,20334,22158,80632,103925
2025-04-14 12:31:14.741,101896,20335,22153,80629,103941
2025-04-14 12:31:14.743,101913,20334,22151,80651,103943
2025-04-14 12:31:14.748,101915,20333,22156,80644,103950
2025-04-14 12:31:14.757,101923,20333,22154,80644,103940
2025-04-14 12:31:14.768,101926,20335,22158,80647,103950
2025-04-14 12:31:14.776,101936,20337,22159,80655,103959
2025-04-14 12:31:14.788,101945,20335,22161,80652,103964
2025-04-14 12:31:14.807,101933,20339,22160,80654,103967
2025-04-14 12:31:14.809,101935,20345,22164,80662,103963
2025-04-14 12:31:14.817,101938,20350,22170,80661,103953
2025-04-14 12:31:14.828,101937,20355,22169,80669,103961
2025-04-14 12:31:14.837,101927,20354,22174,80669,103964
2025-04-14 12:31:14.848,101935,20356,22178,80672,103954
2025-04-14 12:31:14.871,101937,20358,22179,80668,103953
2025-04-14 12:31:14.872,101929,20366,22178,80665,103964
2025-04-14 12:31:14.876,101928,20364,22186,80651,103958
2025-04-14 12:31:14.888,101931,20364,22185,80640,103945
2025-04-14 12:31:14.897,101922,20370,22182,80644,103951
2025-04-14 12:31:14.908,101923,20371,22184,80642,103947
2025-04-14 12:31:14.915,101935,20370,22190,80627,103935
2025-04-14 12:31:14.935,101938,20373,22188,80624,103929
2025-04-14 12:31:14.937,101942,20378,22187,80627,103924
2025-04-14 12:31:14.948,101957,20383,22198,80623,103930
2025-04-14 12:31:14.956,101950,20378,22195,80625,103921
2025-04-14 12:31:14.969,101949,20385,22198,80624,103921
2025-04-14 12:31:14.976,101967,20389,22203,80638,103916
2025-04-14 12:31:15.000,101946,20398,22211,80631,103938
2025-04-14 12:31:15.001,101946,20398,22211,80631,103938
2025-04-14 12:31:15.002,101958,20403,22214,80651,103943
2025-04-14 12:31:15.009,101965,20408,22229,80681,103969
2025-04-14 12:31:15.020,101960,20416,22231,80693,103986
2025-04-14 12:31:15.028,101957,20422,22236,80719,104021
2025-04-14 12:31:15.040,101957,20433,22249,80734,104029
2025-04-14 12:31:15.047,101938,20435,22248,80752,104055
2025-04-14 12:31:15.063,101926,20444,22257,80774,104069
2025-04-14 12:31:15.069,101904,20449,22262,80771,104085
2025-04-14 12:31:15.080,101901,20444,22257,80760,104088
2025-04-14 12:31:15.088,101907,20441,22257,80757,104068
2025-04-14 12:31:15.101,101867,20433,22246,80736,104055
2025-04-14 12:31:15.108,101873,20423,22234,80720,104035
2025-04-14 12:31:15.129,101857,20411,22226,80695,104013
2025-04-14 12:31:15.130,101838,20389,22212,80662,103985
2025-04-14 12:31:15.141,101831,20373,22191,80633,103950
2025-04-14 12:31:15.148,101803,20351,22178,80595,103927
2025-04-14 12:31:15.160,101800,20331,22157,80573,103894
2025-04-14 12:31:15.168,101787,20310,22140,80535,103855
2025-04-14 12:31:15.193,101782,20292,22124,80508,103840
2025-04-14 12:31:15.195,101786,20270,22113,80484,103816
2025-04-14 12:31:15.200,101793,20261,22100,80461,103790
2025-04-14 12:31:15.208,101802,20250,22088,80456,103773
2025-04-14 12:31:15.220,101825,20242,22082,80448,103751
2025-04-14 12:31:15.228,101850,20239,22081,80453,103749
2025-04-14 12:31:15.240,101864,20234,22076,80457,103764
2025-04-14 12:31:15.258,101884,20235,22074,80467,103777
2025-04-14 12:31:15.259,101905,20233,22076,80483,103782
2025-04-14 12:31:15.272,101931,20243,22085,80506,103813
2025-04-14 12:31:15.279,101941,20246,22089,80531,103818
2025-04-14 12:31:15.292,101969,20251,22093,80555,103830
2025-04-14 12:31:15.300,101977,20268,22103,80580,103855
2025-04-14 12:31:15.322,101990,20273,22107,80604,103877
2025-04-14 12:31:15.323,101998,20284,22116,80639,103896
2025-04-14 12:31:15.332,101991,20295,22124,80649,103930
2025-04-14 12:31:15.340,101995,20297,22127,80674,103950
2025-04-14 12:31:15.352,102002,20310,22137,80701,103968
2025-04-14 12:31:15.360,102005,20314,22142,80724,103986
2025-04-14 12:31:15.388,101988,20319,22148,80737,104008
2025-04-14 12:31:15.389,101995,20323,22153,80758,104025
2025-04-14 12:31:15.392,101974,20322,22151,80759,104043
2025-04-14 12:31:15.401,101969,20326,22153,80772,104046
2025-04-14 12:31:15.412,101966,20321,22143,80773,104041
2025-04-14 12:31:15.420,101952,20320,22147,80755,104041
2025-04-14 12:31:15.432,101944,20311,22140,80746,104026
2025-04-14 12:31:15.451,101936,20308,22130,80741,104017
2025-04-14 12:31:15.453,101925,20299,22130,80715,103987
2025-04-14 12:31:15.460,101940,20292,22126,80697,103983
2025-04-14 12:31:15.472,101942,20296,22121,80677,103955
2025-04-14 12:31:15.480,101938,20289,22117,80662,103928
2025-04-14 12:31:15.492,101950,20290,22117,80655,103921
2025-04-14 12:31:15.499,101967,20287,22120,80642,103914
2025-04-14 12:31:15.515,101971,20283,22114,80633,103913
2025-04-14 12:31:15.525,101996,20290,22119,80636,103901
2025-04-14 12:31:15.532,101996,20295,22120,80637,103898
2025-04-14 12:31:15.544,102021,20297,22119,80640,103887
2025-04-14 12:31:15.552,102031,20298,22122,80637,103900
2025-04-14 12:31:15.564,102038,20301,22124,80636,103904
2025-04-14 12:31:15.581,102055,20309,22134,80644,103905
2025-04-14 12:31:15.584,102056,20314,22135,80653,103916
2025-04-14 12:31:15.592,102064,20320,22142,80657,103925
2025-04-14 12:31:15.603,102054,20327,22146,80663,103939
2025-04-14 12:31:15.613,102057,20330,22151,80684,103931
2025-04-14 12:31:15.624,102050,20338,22150,80684,103940
2025-04-14 12:31:15.645,102062,20339,22164,80681,103942
2025-04-14 12:31:15.646,102054,20344,22161,80684,103950
2025-04-14 12:31:15.652,102049,20345,22168,80689,103948
2025-04-14 12:31:15.664,102052,20354,22164,80694,103961
2025-04-14 12:31:15.672,102052,20360,22166,80679,103962
2025-04-14 12:31:15.684,102056,20361,22174,80685,103956
2025-04-14 12:31:15.691,102062,20363,22175,80685,103952
2025-04-14 12:31:15.710,102057,20364,22177,80683,103952
2025-04-14 12:31:15.712,102062,20371,22182,80670,103949
2025-04-14 12:31:15.725,102066,20370,22184,80662,103941
2025-04-14 12:31:15.732,102056,20375,22183,80669,103933
2025-04-14 12:31:15.744,102052,20371,22187,80659,103931
2025-04-14 12:31:15.752,102065,20378,22192,80661,103924
2025-04-14 12:31:15.774,102055,20380,22191,80667,103937
2025-04-14 12:31:15.775,102047,20384,22196,80658,103940
2025-04-14 12:31:15.784,102047,20384,22196,80658,103940
2025-04-14 12:31:15.796,102036,20386,22201,80664,103926
2025-04-14 12:31:15.800,102036,20386,22201,80664,103926
2025-04-14 12:31:15.801,102036,20386,22201,80664,103926
2025-04-14 12:31:15.804,102043,20399,22213,80671,103942
2025-04-14 12:31:15.816,102031,20405,22218,80674,103960
2025-04-14 12:31:15.838,102039,20408,22223,80686,103962
2025-04-14 12:31:15.839,102032,20411,22223,80702,103986
2025-04-14 12:31:15.843,102025,20419,22230,80716,103999
2025-04-14 12:31:15.855,102013,20421,22238,80716,104009
2025-04-14 12:31:15.864,102020,20426,22239,80720,104007
2025-04-14 12:31:15.876,102005,20427,22242,80715,104012
2025-04-14 12:31:15.884,101997,20428,22240,80694,103997
2025-04-14 12:31:15.901,101994,20418,22235,80676,103982
2025-04-14 12:31:15.904,101985,20411,22223,80648,103959
2025-04-14 12:31:15.915,101977,20396,22214,80637,103938
2025-04-14 12:31:15.924,101966,20382,22201,80614,103908
2025-04-14 12:31:15.935,101950,20363,22186,80581,103880
2025-04-14 12:31:15.944,101938,20340,22167,80555,103861
2025-04-14 12:31:15.966,101911,20318,22159,80525,103815
2025-04-14 12:31:15.967,101904,20297,22131,80501,103797
2025-04-14 12:31:15.977,101882,20281,22120,80493,103789
2025-04-14 12:31:15.984,101869,20258,22106,80465,103768
2025-04-14 12:31:15.996,101862,20248,22090,80468,103769
2025-04-14 12:31:16.004,101859,20242,22087,80466,103755
2025-04-14 12:31:16.029,101864,20232,22076,80471,103752
2025-04-14 12:31:16.031,101878,20225,22077,80486,103761
2025-04-14 12:31:16.036,101886,20222,22077,80502,103771
2025-04-14 12:31:16.048,101905,20228,22075,80536,103788
2025-04-14 12:31:16.056,101915,20226,22080,80552,103815
2025-04-14 12:31:16.068,101921,20229,22087,80576,103837
2025-04-14 12:31:16.076,101945,20237,22086,80604,103861
2025-04-14 12:31:16.094,101959,20239,22097,80626,103892
2025-04-14 12:31:16.096,101971,20246,22103,80655,103907
2025-04-14 12:31:16.108,101982,20258,22108,80669,103936
2025-04-14 12:31:16.116,101990,20262,22112,80684,103948
2025-04-14 12:31:16.127,101995,20261,22115,80699,103957
2025-04-14 12:31:16.136,102013,20269,22119,80699,103975
2025-04-14 12:31:16.159,102009,20270,22115,80701,103963
2025-04-14 12:31:16.160,102009,20265,22118,80703,103978
2025-04-14 12:31:16.168,102011,20274,22119,80691,103969
2025-04-14 12:31:16.176,102020,20275,22119,80696,103961
2025-04-14 12:31:16.188,101998,20265,22113,80691,103953
2025-04-14 12:31:16.195,102001,20261,22118,80681,103946
2025-04-14 12:31:16.207,101992,20256,22112,80678,103930
2025-04-14 12:31:16.223,101994,20259,22107,80677,103916
2025-04-14 12:31:16.228,101980,20257,22104,80683,103913
2025-04-14 12:31:16.237,101964,20248,22103,80670,103925
2025-04-14 12:31:16.248,101951,20248,22097,80660,103920
2025-04-14 12:31:16.256,101937,20241,22093,80676,103913
2025-04-14 12:31:16.267,101944,20237,22094,80685,103918
2025-04-14 12:31:16.287,101923,20243,22093,80694,103908
2025-04-14 12:31:16.289,101924,20240,22096,80704,103926
2025-04-14 12:31:16.296,101906,20244,22093,80697,103952
2025-04-14 12:31:16.307,101909,20239,22095,80736,103946
2025-04-14 12:31:16.320,101896,20244,22098,80746,103959
2025-04-14 12:31:16.328,101895,20252,22101,80762,103975
2025-04-14 12:31:16.351,101887,20254,22106,80777,103988
2025-04-14 12:31:16.353,101894,20254,22108,80803,104010
2025-04-14 12:31:16.360,101893,20267,22112,80826,104037
2025-04-14 12:31:16.368,101897,20271,22120,80845,104038
2025-04-14 12:31:16.380,101891,20276,22122,80862,104068
2025-04-14 12:31:16.388,101898,20286,22126,80884,104086
2025-04-14 12:31:16.399,101897,20283,22133,80900,104083
2025-04-14 12:31:16.415,101891,20289,22137,80909,104110
2025-04-14 12:31:16.420,101897,20296,22139,80924,104123
2025-04-14 12:31:16.427,101890,20303,22146,80944,104133
2025-04-14 12:31:16.440,101892,20306,22152,80965,104160
2025-04-14 12:31:16.448,101898,20314,22159,80982,104177
2025-04-14 12:31:16.459,101895,20325,22159,81000,104202
2025-04-14 12:31:16.480,101895,20325,22172,81015,104210
2025-04-14 12:31:16.481,101874,20334,22168,81027,104224
2025-04-14 12:31:16.488,101881,20334,22171,81050,104242
2025-04-14 12:31:16.499,101881,20342,22174,81053,104255
2025-04-14 12:31:16.507,101869,20342,22176,81069,104253
2025-04-14 12:31:16.519,101880,20344,22186,81075,104267
2025-04-14 12:31:16.528,101862,20352,22186,81085,104281
2025-04-14 12:31:16.543,101852,20357,22190,81094,104301
2025-04-14 12:31:16.548,101844,20359,22192,81106,104309
2025-04-14 12:31:16.559,101845,20363,22192,81128,104310
2025-04-14 12:31:16.572,101841,20365,22199,81131,104323
2025-04-14 12:31:16.579,101847,20366,22204,81135,104329
2025-04-14 12:31:16.592,101837,20369,22205,81145,104342
2025-04-14 12:31:16.607,101837,20369,22205,81145,104342
2025-04-14 12:31:16.612,101832,20374,22207,81141,104341
2025-04-14 12:31:16.620,101839,20377,22211,81147,104337
2025-04-14 12:31:16.632,101823,20385,22210,81139,104340
2025-04-14 12:31:16.639,101813,20378,22213,81146,104332
2025-04-14 12:31:16.652,101806,20389,22216,81141,104324
2025-04-14 12:31:16.672,101800,20382,22217,81149,104325
2025-04-14 12:31:16.673,101814,20389,22218,81144,104325
2025-04-14 12:31:16.680,101804,20392,22227,81149,104322
2025-04-14 12:31:16.692,101803,20396,22232,81149,104341
2025-04-14 12:31:16.699,101797,20397,22230,81144,104333
2025-04-14 12:31:16.712,101796,20402,22233,81144,104333
2025-04-14 12:31:16.720,101798,20401,22237,81128,104322
2025-04-14 12:31:16.739,101802,20404,22232,81111,104323
2025-04-14 12:31:16.740,101801,20398,22231,81086,104294
2025-04-14 12:31:16.751,101794,20390,22224,81052,104272
2025-04-14 12:31:16.760,101787,20375,22210,81043,104226
2025-04-14 12:31:16.772,101778,20366,22197,81005,104194
2025-04-14 12:31:16.780,101764,20344,22183,80965,104172
2025-04-14 12:31:16.804,101747,20324,22164,80940,104150
2025-04-14 12:31:16.805,101737,20297,22148,80901,104111
2025-04-14 12:31:16.808,101737,20297,22148,80901,104111
2025-04-14 12:31:16.809,101737,20297,22148,80901,104111
2025-04-14 12:31:16.812,101699,20236,22093,80822,104007
2025-04-14 12:31:16.824,101681,20221,22081,80801,103997
2025-04-14 12:31:16.832,101687,20202,22072,80788,103976
2025-04-14 12:31:16.844,101693,20195,22068,80785,103948
2025-04-14 12:31:16.851,101693,20187,22058,80781,103941
2025-04-14 12:31:16.867,101708,20186,22050,80781,103941
2025-04-14 12:31:16.872,101715,20179,22051,80788,103949
2025-04-14 12:31:16.884,101743,20175,22049,80789,103927
2025-04-14 12:31:16.891,101772,20178,22050,80786,103947
2025-04-14 12:31:16.904,101796,20174,22048,80777,103933
2025-04-14 12:31:16.913,101806,20179,22050,80778,103932
2025-04-14 12:31:16.931,101825,20177,22049,80792,103933
2025-04-14 12:31:16.933,101846,20181,22058,80784,103933
2025-04-14 12:31:16.943,101861,20190,22059,80780,103917
2025-04-14 12:31:16.951,101866,20190,22064,80768,103914
2025-04-14 12:31:16.964,101883,20199,22065,80765,103928
2025-04-14 12:31:16.971,101887,20203,22064,80745,103919
2025-04-14 12:31:16.997,101896,20202,22066,80745,103901
2025-04-14 12:31:16.998,101896,20202,22066,80745,103901
2025-04-14 12:31:17.003,101897,20204,22062,80733,103894
2025-04-14 12:31:17.008,101897,20204,22062,80733,103894
2025-04-14 12:31:17.012,101916,20203,22071,80712,103855
2025-04-14 12:31:17.024,101897,20203,22065,80700,103865
2025-04-14 12:31:17.036,101889,20199,22061,80695,103848
2025-04-14 12:31:17.043,101879,20197,22053,80682,103836
2025-04-14 12:31:17.061,101887,20191,22053,80671,103829
2025-04-14 12:31:17.064,101872,20187,22048,80665,103807
2025-04-14 12:31:17.076,101851,20182,22046,80639,103802
2025-04-14 12:31:17.084,101861,20177,22037,80628,103775
2025-04-14 12:31:17.095,101843,20175,22039,80617,103765
2025-04-14 12:31:17.104,101843,20170,22033,80598,103756
2025-04-14 12:31:17.125,101840,20167,22025,80577,103736
2025-04-14 12:31:17.126,101822,20163,22030,80568,103731
2025-04-14 12:31:17.136,101827,20161,22026,80553,103709
2025-04-14 12:31:17.143,101827,20164,22024,80548,103699
2025-04-14 12:31:17.156,101821,20157,22026,80545,103688
2025-04-14 12:31:17.164,101841,20160,22026,80537,103685
2025-04-14 12:31:17.189,101846,20160,22024,80529,103673
2025-04-14 12:31:17.190,101848,20165,22027,80530,103664
2025-04-14 12:31:17.196,101848,20164,22026,80510,103669
2025-04-14 12:31:17.203,101856,20164,22030,80504,103646
2025-04-14 12:31:17.216,101865,20167,22029,80494,103646
2025-04-14 12:31:17.224,101874,20172,22032,80488,103638
2025-04-14 12:31:17.235,101872,20172,22036,80487,103631
2025-04-14 12:31:17.253,101881,20178,22037,80477,103640
2025-04-14 12:31:17.256,101874,20176,22033,80473,103626
2025-04-14 12:31:17.267,101885,20176,22036,80466,103630
2025-04-14 12:31:17.275,101887,20179,22033,80464,103620
2025-04-14 12:31:17.288,101879,20179,22036,80446,103611
2025-04-14 12:31:17.295,101890,20179,22042,80446,103610
2025-04-14 12:31:17.316,101894,20179,22043,80436,103598
2025-04-14 12:31:17.317,101885,20184,22041,80428,103616
2025-04-14 12:31:17.328,101882,20180,22045,80420,103604
2025-04-14 12:31:17.335,101896,20182,22047,80400,103580
2025-04-14 12:31:17.348,101889,20189,22046,80406,103587
2025-04-14 12:31:17.355,101895,20184,22050,80402,103587
2025-04-14 12:31:17.380,101897,20181,22045,80384,103575
2025-04-14 12:31:17.381,101904,20188,22045,80382,103562
2025-04-14 12:31:17.388,101903,20186,22046,80376,103554
2025-04-14 12:31:17.395,101904,20189,22056,80359,103555
2025-04-14 12:31:17.407,101907,20195,22058,80365,103545
2025-04-14 12:31:17.412,101907,20195,22058,80365,103545
2025-04-14 12:31:17.416,101906,20201,22060,80364,103545
2025-04-14 12:31:17.427,101908,20200,22057,80357,103555
2025-04-14 12:31:17.444,101908,20204,22063,80360,103550
2025-04-14 12:31:17.448,101903,20203,22065,80359,103554
2025-04-14 12:31:17.455,101902,20209,22064,80350,103540
2025-04-14 12:31:17.467,101906,20206,22072,80353,103543
2025-04-14 12:31:17.476,101900,20211,22067,80346,103541
2025-04-14 12:31:17.488,101907,20213,22074,80349,103544
2025-04-14 12:31:17.508,101902,20223,22075,80362,103551
2025-04-14 12:31:17.509,101906,20226,22085,80358,103553
2025-04-14 12:31:17.519,101904,20227,22086,80369,103559
2025-04-14 12:31:17.527,101908,20233,22088,80370,103582
2025-04-14 12:31:17.539,101898,20236,22093,80386,103588
2025-04-14 12:31:17.547,101891,20238,22101,80388,103590
2025-04-14 12:31:17.573,101905,20240,22103,80387,103577
2025-04-14 12:31:17.574,101883,20242,22106,80378,103600
2025-04-14 12:31:17.579,101883,20244,22105,80376,103590
2025-04-14 12:31:17.588,101875,20236,22105,80370,103595
2025-04-14 12:31:17.599,101872,20236,22095,80353,103568
2025-04-14 12:31:17.608,101851,20219,22084,80349,103545
2025-04-14 12:31:17.619,101830,20203,22075,80316,103529
2025-04-14 12:31:17.637,101814,20193,22061,80296,103514
2025-04-14 12:31:17.640,101794,20167,22040,80284,103488
2025-04-14 12:31:17.648,101769,20147,22023,80265,103466
2025-04-14 12:31:17.659,101740,20124,22013,80254,103461
2025-04-14 12:31:17.667,101727,20109,21998,80251,103447
2025-04-14 12:31:17.680,101709,20103,21988,80243,103428
2025-04-14 12:31:17.701,101699,20082,21976,80239,103428
2025-04-14 12:31:17.702,101689,20069,21966,80238,103423
2025-04-14 12:31:17.707,101690,20068,21967,80247,103430
2025-04-14 12:31:17.719,101693,20059,21960,80268,103431
2025-04-14 12:31:17.728,101695,20062,21956,80279,103455
2025-04-14 12:31:17.739,101715,20056,21957,80311,103474
2025-04-14 12:31:17.748,101740,20057,21965,80338,103510
2025-04-14 12:31:17.767,101758,20065,21965,80363,103540
2025-04-14 12:31:17.769,101783,20070,21973,80385,103554
2025-04-14 12:31:17.780,101796,20079,21982,80394,103576
2025-04-14 12:31:17.787,101825,20081,21981,80419,103597
2025-04-14 12:31:17.799,101828,20087,21987,80428,103615
2025-04-14 12:31:17.812,101848,20096,21999,80431,103625
2025-04-14 12:31:17.830,101857,20101,22002,80446,103640
2025-04-14 12:31:17.832,101867,20108,22006,80450,103637
2025-04-14 12:31:17.839,101859,20109,22010,80447,103651
2025-04-14 12:31:17.851,101877,20116,22008,80458,103663
2025-04-14 12:31:17.859,101881,20118,22013,80465,103653
2025-04-14 12:31:17.872,101880,20119,22009,80450,103650
2025-04-14 12:31:17.879,101868,20116,22008,80456,103649
2025-04-14 12:31:17.895,101866,20119,22010,80460,103660
2025-04-14 12:31:17.899,101859,20112,22007,80451,103658
2025-04-14 12:31:17.911,101848,20106,22002,80459,103647
2025-04-14 12:31:17.919,101834,20108,21998,80447,103652
2025-04-14 12:31:17.931,101826,20100,21995,80454,103644
2025-04-14 12:31:17.939,101804,20099,21994,80444,103637
2025-04-14 12:31:17.958,101796,20093,21988,80445,103641
2025-04-14 12:31:17.960,101804,20091,21985,80469,103646
2025-04-14 12:31:17.972,101792,20088,21988,80466,103631
2025-04-14 12:31:17.979,101788,20090,21987,80495,103662
2025-04-14 12:31:17.992,101779,20097,21987,80492,103670
2025-04-14 12:31:17.999,101779,20097,21993,80517,103663
2025-04-14 12:31:18.022,101780,20100,21996,80533,103686
2025-04-14 12:31:18.023,101769,20105,22001,80540,103706
2025-04-14 12:31:18.031,101781,20103,22003,80565,103707
2025-04-14 12:31:18.043,101760,20113,22005,80585,103734
2025-04-14 12:31:18.051,101759,20114,22013,80606,103742
2025-04-14 12:31:18.063,101754,20129,22016,80634,103772
2025-04-14 12:31:18.087,101763,20137,22024,80653,103788
2025-04-14 12:31:18.088,101759,20144,22028,80665,103799
2025-04-14 12:31:18.091,101759,20155,22037,80700,103827
2025-04-14 12:31:18.104,101746,20163,22041,80703,103845
2025-04-14 12:31:18.111,101740,20165,22047,80729,103856
2025-04-14 12:31:18.123,101742,20169,22050,80754,103885
2025-04-14 12:31:18.132,101729,20180,22061,80773,103895
2025-04-14 12:31:18.150,101723,20184,22066,80805,103915
2025-04-14 12:31:18.152,101709,20196,22072,80829,103940
2025-04-14 12:31:18.163,101702,20195,22074,80847,103955
2025-04-14 12:31:18.171,101695,20205,22079,80861,103990
2025-04-14 12:31:18.183,101679,20204,22080,80875,104000
2025-04-14 12:31:18.191,101671,20209,22087,80885,104003
2025-04-14 12:31:18.215,101669,20209,22084,80879,104017
2025-04-14 12:31:18.216,101663,20213,22085,80887,104008
2025-04-14 12:31:18.217,101663,20213,22085,80887,104008
2025-04-14 12:31:18.223,101672,20208,22092,80885,104006
2025-04-14 12:31:18.231,101685,20210,22092,80884,103998
2025-04-14 12:31:18.243,101691,20215,22094,80873,104000
2025-04-14 12:31:18.252,101711,20215,22095,80874,103992
2025-04-14 12:31:18.263,101718,20216,22100,80856,103984
2025-04-14 12:31:18.279,101719,20215,22098,80850,103984
2025-04-14 12:31:18.284,101726,20219,22102,80841,103956
2025-04-14 12:31:18.292,101725,20223,22100,80837,103954
2025-04-14 12:31:18.304,101720,20221,22104,80836,103947
2025-04-14 12:31:18.315,101717,20229,22113,80845,103948
2025-04-14 12:31:18.324,101713,20234,22111,80853,103960
2025-04-14 12:31:18.343,101701,20240,22116,80871,103968
2025-04-14 12:31:18.344,101687,20249,22125,80898,103980
2025-04-14 12:31:18.356,101675,20255,22128,80909,104014
2025-04-14 12:31:18.363,101675,20264,22136,80944,104034
2025-04-14 12:31:18.376,101652,20266,22138,80959,104055
2025-04-14 12:31:18.383,101653,20271,22143,80985,104069
2025-04-14 12:31:18.408,101616,20276,22150,80990,104087
2025-04-14 12:31:18.409,101603,20282,22148,81004,104095
2025-04-14 12:31:18.415,101596,20283,22150,81005,104091
2025-04-14 12:31:18.424,101579,20274,22150,81001,104089
2025-04-14 12:31:18.435,101560,20270,22144,80999,104086
2025-04-14 12:31:18.443,101551,20260,22133,80989,104067
2025-04-14 12:31:18.455,101542,20242,22125,80980,104045
2025-04-14 12:31:18.472,101509,20221,22105,80951,104044
2025-04-14 12:31:18.476,101481,20206,22094,80949,104015
2025-04-14 12:31:18.483,101460,20185,22082,80924,103998
2025-04-14 12:31:18.495,101443,20166,22061,80907,103981
2025-04-14 12:31:18.504,101402,20143,22039,80895,103959
2025-04-14 12:31:18.515,101380,20128,22031,80912,103950
2025-04-14 12:31:18.537,101361,20117,22023,80904,103941
2025-04-14 12:31:18.538,101339,20102,22017,80905,103945
2025-04-14 12:31:18.543,101312,20092,22011,80934,103950
2025-04-14 12:31:18.555,101313,20090,22004,80967,103971
2025-04-14 12:31:18.567,101298,20091,22008,80987,103991
2025-04-14 12:31:18.575,101302,20088,22012,81012,104011
2025-04-14 12:31:18.600,101302,20091,22015,81067,104052
2025-04-14 12:31:18.602,101317,20099,22018,81104,104082
2025-04-14 12:31:18.608,101328,20106,22024,81151,104129
2025-04-14 12:31:18.615,101351,20114,22034,81201,104187
2025-04-14 12:31:18.628,101352,20121,22045,81247,104225
2025-04-14 12:31:18.635,101378,20130,22043,81284,104253
2025-04-14 12:31:18.647,101375,20143,22049,81323,104293
2025-04-14 12:31:18.666,101379,20143,22060,81346,104313
2025-04-14 12:31:18.668,101373,20147,22064,81378,104346
2025-04-14 12:31:18.675,101379,20151,22066,81391,104354
2025-04-14 12:31:18.687,101382,20160,22071,81408,104387
2025-04-14 12:31:18.695,101375,20161,22072,81423,104395
2025-04-14 12:31:18.707,101377,20160,22081,81427,104388
2025-04-14 12:31:18.731,101383,20164,22078,81433,104402
2025-04-14 12:31:18.732,101386,20165,22073,81444,104402
2025-04-14 12:31:18.736,101377,20158,22072,81442,104407
2025-04-14 12:31:18.747,101391,20154,22070,81448,104421
2025-04-14 12:31:18.756,101382,20153,22069,81447,104406
2025-04-14 12:31:18.767,101388,20149,22064,81450,104416
2025-04-14 12:31:18.775,101383,20144,22062,81442,104414
2025-04-14 12:31:18.796,101379,20142,22060,81435,104407
2025-04-14 12:31:18.797,101387,20142,22061,81431,104418
2025-04-14 12:31:18.808,101374,20142,22059,81445,104400
2025-04-14 12:31:18.819,101365,20139,22055,81419,104399
2025-04-14 12:31:18.828,101356,20140,22052,81419,104399
2025-04-14 12:31:18.839,101344,20143,22054,81405,104389
2025-04-14 12:31:18.860,101355,20142,22057,81409,104384
2025-04-14 12:31:18.861,101367,20144,22056,81401,104380
2025-04-14 12:31:18.867,101357,20145,22059,81404,104376
2025-04-14 12:31:18.878,101367,20148,22054,81390,104371
2025-04-14 12:31:18.887,101380,20146,22058,81377,104369
2025-04-14 12:31:18.898,101394,20147,22061,81367,104350
2025-04-14 12:31:18.907,101407,20146,22061,81345,104343
2025-04-14 12:31:18.924,101437,20154,22062,81319,104317
2025-04-14 12:31:18.927,101449,20150,22059,81302,104310
2025-04-14 12:31:18.939,101461,20150,22058,81271,104284
2025-04-14 12:31:18.947,101479,20155,22058,81256,104246
2025-04-14 12:31:18.959,101501,20156,22060,81229,104228
2025-04-14 12:31:18.968,101516,20158,22064,81218,104221
2025-04-14 12:31:18.989,101532,20160,22066,81195,104197
2025-04-14 12:31:18.990,101544,20165,22068,81178,104186
2025-04-14 12:31:18.999,101545,20167,22067,81169,104170
2025-04-14 12:31:19.007,101557,20164,22066,81156,104174
2025-04-14 12:31:19.018,101562,20173,22074,81163,104166
2025-04-14 12:31:19.023,101562,20173,22074,81163,104166
2025-04-14 12:31:19.027,101579,20180,22081,81142,104159
2025-04-14 12:31:19.053,101563,20183,22084,81134,104152
2025-04-14 12:31:19.054,101562,20186,22087,81129,104143
2025-04-14 12:31:19.059,101561,20190,22087,81128,104151
2025-04-14 12:31:19.067,101574,20192,22082,81112,104122
2025-04-14 12:31:19.079,101563,20195,22086,81103,104107
2025-04-14 12:31:19.091,101572,20192,22090,81089,104103
2025-04-14 12:31:19.098,101580,20197,22096,81068,104082
2025-04-14 12:31:19.117,101593,20196,22085,81053,104071
2025-04-14 12:31:19.119,101602,20194,22091,81034,104060
2025-04-14 12:31:19.130,101608,20192,22091,81015,104034
2025-04-14 12:31:19.139,101607,20190,22088,80985,103998
2025-04-14 12:31:19.151,101626,20190,22086,80972,103979
2025-04-14 12:31:19.160,101624,20189,22085,80943,103956
2025-04-14 12:31:19.183,101643,20187,22084,80914,103928
2025-04-14 12:31:19.184,101667,20185,22081,80892,103903
2025-04-14 12:31:19.191,101678,20192,22081,80862,103879
2025-04-14 12:31:19.198,101692,20194,22089,80845,103859
2025-04-14 12:31:19.212,101698,20191,22085,80829,103843
2025-04-14 12:31:19.219,101719,20194,22084,80810,103812
2025-04-14 12:31:19.231,101727,20192,22083,80790,103800
2025-04-14 12:31:19.249,101743,20195,22086,80769,103788
2025-04-14 12:31:19.251,101742,20195,22086,80742,103775
2025-04-14 12:31:19.259,101733,20195,22088,80709,103741
2025-04-14 12:31:19.270,101737,20189,22080,80676,103703
2025-04-14 12:31:19.279,101727,20180,22071,80639,103669
2025-04-14 12:31:19.291,101721,20168,22063,80611,103651
2025-04-14 12:31:19.312,101716,20156,22050,80575,103612
2025-04-14 12:31:19.314,101709,20140,22037,80540,103562
2025-04-14 12:31:19.319,101690,20120,22018,80495,103538
2025-04-14 12:31:19.331,101682,20097,21999,80457,103489
2025-04-14 12:31:19.340,101657,20071,21979,80416,103438
2025-04-14 12:31:19.350,101631,20053,21965,80387,103415
2025-04-14 12:31:19.377,101616,20034,21948,80348,103404
2025-04-14 12:31:19.379,101597,20015,21933,80336,103360
2025-04-14 12:31:19.383,101600,19996,21921,80317,103345
2025-04-14 12:31:19.391,101583,19992,21913,80296,103331
2025-04-14 12:31:19.403,101581,19983,21905,80285,103320
2025-04-14 12:31:19.411,101592,19978,21892,80280,103311
2025-04-14 12:31:19.423,101593,19967,21890,80273,103302
2025-04-14 12:31:19.443,101603,19967,21889,80290,103308
2025-04-14 12:31:19.444,101621,19963,21890,80290,103302
2025-04-14 12:31:19.450,101642,19970,21891,80283,103301
2025-04-14 12:31:19.462,101660,19972,21891,80293,103329
2025-04-14 12:31:19.472,101669,19973,21895,80293,103316
2025-04-14 12:31:19.483,101667,19977,21901,80302,103321
2025-04-14 12:31:19.491,101688,19985,21905,80311,103334
2025-04-14 12:31:19.506,101698,19989,21906,80300,103334
2025-04-14 12:31:19.511,101709,19995,21913,80313,103343
2025-04-14 12:31:19.523,101706,20001,21918,80301,103354
2025-04-14 12:31:19.531,101700,20004,21921,80309,103355
2025-04-14 12:31:19.543,101710,20009,21923,80317,103342
2025-04-14 12:31:19.551,101696,20010,21928,80312,103338
2025-04-14 12:31:19.569,101691,20003,21925,80320,103345
2025-04-14 12:31:19.571,101683,20007,21924,80326,103349
2025-04-14 12:31:19.583,101670,20008,21924,80315,103337
2025-04-14 12:31:19.591,101653,20007,21921,80323,103344
2025-04-14 12:31:19.603,101631,20005,21919,80321,103354
2025-04-14 12:31:19.614,101622,20000,21913,80332,103349
2025-04-14 12:31:19.634,101604,19997,21910,80334,103358
2025-04-14 12:31:19.635,101593,19995,21914,80331,103364
2025-04-14 12:31:19.643,101579,19992,21907,80342,103365
2025-04-14 12:31:19.655,101570,19991,21908,80351,103364
2025-04-14 12:31:19.662,101555,19991,21907,80361,103374
2025-04-14 12:31:19.675,101546,19991,21908,80354,103384
2025-04-14 12:31:19.683,101550,19989,21912,80364,103393
2025-04-14 12:31:19.699,101542,19991,21909,80370,103397
2025-04-14 12:31:19.703,101548,19994,21912,80388,103400
2025-04-14 12:31:19.714,101536,19994,21915,80388,103415
2025-04-14 12:31:19.723,101536,19993,21915,80393,103404
2025-04-14 12:31:19.735,101529,20000,21915,80406,103420
2025-04-14 12:31:19.743,101526,20007,21920,80422,103410
2025-04-14 12:31:19.763,101524,20010,21923,80445,103417
2025-04-14 12:31:19.765,101515,20012,21926,80456,103441
2025-04-14 12:31:19.775,101517,20020,21931,80467,103457
2025-04-14 12:31:19.783,101518,20022,21939,80492,103478
2025-04-14 12:31:19.795,101519,20030,21944,80495,103498
2025-04-14 12:31:19.803,101516,20032,21946,80504,103515
2025-04-14 12:31:19.827,101524,20039,21948,80517,103533
2025-04-14 12:31:19.828,101520,20037,21950,80532,103537
2025-04-14 12:31:19.835,101520,20039,21955,80544,103532
2025-04-14 12:31:19.843,101509,20045,21956,80552,103560
2025-04-14 12:31:19.855,101493,20048,21957,80558,103559
2025-04-14 12:31:19.863,101482,20052,21959,80558,103577
2025-04-14 12:31:19.875,101460,20048,21961,80571,103580
2025-04-14 12:31:19.892,101460,20055,21963,80563,103570
2025-04-14 12:31:19.895,101441,20056,21972,80567,103585
2025-04-14 12:31:19.907,101443,20054,21968,80564,103579
2025-04-14 12:31:19.915,101445,20061,21967,80567,103589
2025-04-14 12:31:19.927,101440,20062,21970,80565,103585
2025-04-14 12:31:19.934,101449,20065,21975,80574,103573
2025-04-14 12:31:19.957,101454,20067,21973,80567,103578
2025-04-14 12:31:19.958,101464,20067,21980,80572,103584
2025-04-14 12:31:19.966,101468,20075,21975,80567,103595
2025-04-14 12:31:19.974,101470,20077,21981,80567,103579
2025-04-14 12:31:19.986,101461,20080,21983,80568,103578
2025-04-14 12:31:19.995,101469,20083,21988,80555,103584
2025-04-14 12:31:20.021,101475,20082,21994,80573,103577
2025-04-14 12:31:20.023,101478,20098,21999,80580,103593
2025-04-14 12:31:20.027,101479,20099,21992,80586,103614
2025-04-14 12:31:20.030,101479,20099,21992,80586,103614
2025-04-14 12:31:20.034,101456,20104,22005,80623,103628
2025-04-14 12:31:20.046,101450,20112,22013,80612,103627
2025-04-14 12:31:20.055,101438,20115,22016,80630,103647
2025-04-14 12:31:20.067,101430,20115,22015,80641,103651
2025-04-14 12:31:20.086,101427,20122,22019,80635,103658
2025-04-14 12:31:20.088,101409,20123,22015,80640,103648
2025-04-14 12:31:20.095,101402,20118,22018,80646,103647
2025-04-14 12:31:20.107,101392,20115,22011,80648,103651
2025-04-14 12:31:20.115,101385,20102,22001,80641,103650
2025-04-14 12:31:20.126,101369,20089,21992,80641,103644
2025-04-14 12:31:20.135,101340,20076,21978,80626,103628
2025-04-14 12:31:20.152,101326,20059,21967,80623,103628
2025-04-14 12:31:20.158,101285,20045,21952,80629,103604
2025-04-14 12:31:20.167,101278,20029,21938,80621,103614
2025-04-14 12:31:20.179,101244,20013,21928,80628,103614
2025-04-14 12:31:20.187,101224,19996,21918,80635,103614
2025-04-14 12:31:20.198,101219,19994,21911,80652,103640
2025-04-14 12:31:20.216,101206,19985,21910,80658,103655
2025-04-14 12:31:20.219,101199,19981,21904,80677,103673
2025-04-14 12:31:20.227,101191,19983,21902,80700,103685
2025-04-14 12:31:20.239,101193,19984,21905,80717,103714
2025-04-14 12:31:20.247,101217,19981,21904,80743,103742
2025-04-14 12:31:20.259,101224,19979,21907,80754,103760
2025-04-14 12:31:20.280,101242,19989,21910,80773,103787
2025-04-14 12:31:20.281,101246,19995,21916,80800,103817
2025-04-14 12:31:20.287,101266,20004,21919,80822,103846
2025-04-14 12:31:20.299,101281,20012,21928,80833,103866
2025-04-14 12:31:20.306,101291,20021,21940,80852,103891
2025-04-14 12:31:20.319,101294,20026,21941,80845,103906
2025-04-14 12:31:20.327,101315,20036,21942,80848,103910
2025-04-14 12:31:20.344,101331,20034,21940,80859,103912
2025-04-14 12:31:20.347,101342,20037,21947,80852,103917
2025-04-14 12:31:20.359,101352,20039,21947,80845,103917
2025-04-14 12:31:20.367,101364,20041,21946,80844,103917
2025-04-14 12:31:20.378,101362,20039,21945,80837,103910
2025-04-14 12:31:20.387,101363,20036,21939,80832,103882
2025-04-14 12:31:20.409,101371,20041,21939,80822,103886
2025-04-14 12:31:20.411,101362,20033,21935,80802,103875
2025-04-14 12:31:20.419,101349,20029,21928,80799,103877
2025-04-14 12:31:20.430,101340,20023,21923,80794,103873
2025-04-14 12:31:20.438,101345,20023,21927,80789,103854
2025-04-14 12:31:20.451,101337,20023,21921,80770,103855
2025-04-14 12:31:20.473,101329,20019,21921,80769,103853
2025-04-14 12:31:20.475,101318,20017,21917,80768,103834
2025-04-14 12:31:20.478,101312,20017,21916,80763,103853
2025-04-14 12:31:20.490,101306,20019,21913,80767,103865
2025-04-14 12:31:20.499,101304,20016,21916,80764,103853
2025-04-14 12:31:20.511,101307,20024,21916,80763,103878
2025-04-14 12:31:20.519,101315,20033,21917,80761,103886
2025-04-14 12:31:20.538,101309,20032,21925,80778,103899
2025-04-14 12:31:20.539,101310,20042,21928,80793,103907
2025-04-14 12:31:20.551,101316,20042,21929,80797,103936
2025-04-14 12:31:20.559,101320,20049,21934,80805,103950
2025-04-14 12:31:20.571,101333,20061,21942,80806,103967
2025-04-14 12:31:20.578,101334,20065,21949,80820,103967
2025-04-14 12:31:20.602,101353,20074,21951,80832,103993
2025-04-14 12:31:20.603,101351,20081,21957,80837,104001
2025-04-14 12:31:20.611,101348,20084,21958,80846,104025
2025-04-14 12:31:20.618,101357,20085,21966,80853,104021
2025-04-14 12:31:20.630,101366,20093,21969,80859,104032
2025-04-14 12:31:20.639,101360,20097,21976,80869,104030
2025-04-14 12:31:20.650,101358,20109,21976,80873,104036
2025-04-14 12:31:20.666,101376,20106,21980,80877,104033
2025-04-14 12:31:20.671,101370,20109,21981,80897,104045
2025-04-14 12:31:20.682,101374,20114,21984,80886,104051
2025-04-14 12:31:20.690,101382,20121,21993,80897,104059
2025-04-14 12:31:20.698,101382,20121,21993,80897,104059
2025-04-14 12:31:20.710,101385,20126,21989,80904,104060
2025-04-14 12:31:20.730,101387,20126,21990,80904,104064
2025-04-14 12:31:20.732,101393,20130,21994,80888,104045
2025-04-14 12:31:20.743,101396,20132,21991,80859,104033
2025-04-14 12:31:20.750,101395,20131,21995,80853,104024
2025-04-14 12:31:20.762,101399,20138,21990,80831,104008
2025-04-14 12:31:20.770,101420,20137,21996,80813,103976
2025-04-14 12:31:20.795,101420,20139,21999,80799,103958
2025-04-14 12:31:20.796,101429,20146,21997,80760,103936
2025-04-14 12:31:20.802,101443,20146,21994,80742,103917
2025-04-14 12:31:20.811,101451,20145,21994,80731,103897
2025-04-14 12:31:20.823,101442,20151,21999,80708,103870
2025-04-14 12:31:20.834,101448,20156,22005,80719,103863
2025-04-14 12:31:20.838,101448,20156,22005,80719,103863
2025-04-14 12:31:20.839,101448,20156,22005,80719,103863
2025-04-14 12:31:20.842,101452,20178,22021,80700,103850
2025-04-14 12:31:20.858,101441,20187,22027,80706,103852
2025-04-14 12:31:20.863,101438,20201,22032,80715,103860
2025-04-14 12:31:20.875,101429,20200,22041,80722,103871
2025-04-14 12:31:20.882,101428,20202,22033,80727,103869
2025-04-14 12:31:20.894,101398,20196,22036,80721,103868
2025-04-14 12:31:20.903,101383,20189,22031,80725,103867
2025-04-14 12:31:20.924,101355,20180,22017,80720,103866
2025-04-14 12:31:20.925,101324,20166,22007,80710,103864
2025-04-14 12:31:20.934,101299,20149,21997,80709,103858
2025-04-14 12:31:20.942,101289,20134,21981,80696,103831
2025-04-14 12:31:20.955,101262,20120,21970,80687,103819
2025-04-14 12:31:20.962,101247,20103,21960,80682,103812
2025-04-14 12:31:20.987,101233,20087,21944,80660,103786
2025-04-14 12:31:20.988,101210,20074,21932,80646,103774
2025-04-14 12:31:20.994,101220,20062,21927,80627,103751
2025-04-14 12:31:21.003,101217,20052,21919,80603,103733
2025-04-14 12:31:21.015,101239,20045,21907,80584,103712
2025-04-14 12:31:21.022,101248,20039,21904,80549,103673
2025-04-14 12:31:21.034,101280,20032,21898,80530,103657
2025-04-14 12:31:21.051,101302,20024,21897,80478,103614
2025-04-14 12:31:21.055,101332,20017,21885,80446,103571
2025-04-14 12:31:21.062,101368,20017,21883,80409,103560
2025-04-14 12:31:21.074,101419,20013,21877,80373,103510
2025-04-14 12:31:21.082,101472,20006,21870,80324,103457
2025-04-14 12:31:21.094,101509,20009,21866,80283,103432
2025-04-14 12:31:21.115,101563,20006,21866,80246,103385
2025-04-14 12:31:21.117,101591,20007,21864,80219,103363
2025-04-14 12:31:21.123,101622,20003,21860,80183,103320
2025-04-14 12:31:21.135,101642,19997,21851,80145,103299
2025-04-14 12:31:21.147,101670,19996,21851,80132,103264
2025-04-14 12:31:21.154,101681,19993,21843,80109,103250
2025-04-14 12:31:21.180,101687,19990,21840,80108,103229
2025-04-14 12:31:21.182,101695,19986,21835,80106,103234
2025-04-14 12:31:21.186,101681,19985,21835,80110,103237
2025-04-14 12:31:21.195,101677,19982,21835,80139,103247
2025-04-14 12:31:21.207,101650,19981,21829,80157,103256
2025-04-14 12:31:21.214,101622,19983,21833,80195,103287
2025-04-14 12:31:21.226,101601,19981,21835,80240,103316
2025-04-14 12:31:21.244,101578,19993,21835,80281,103362
2025-04-14 12:31:21.247,101532,20001,21841,80339,103394
2025-04-14 12:31:21.254,101516,20018,21853,80396,103450
2025-04-14 12:31:21.267,101482,20020,21868,80466,103508
2025-04-14 12:31:21.274,101450,20040,21874,80524,103581
2025-04-14 12:31:21.287,101427,20050,21889,80602,103656
2025-04-14 12:31:21.308,101403,20067,21900,80682,103737
2025-04-14 12:31:21.309,101357,20080,21912,80751,103815
2025-04-14 12:31:21.315,101307,20091,21925,80817,103881
2025-04-14 12:31:21.326,101288,20104,21935,80874,103950
2025-04-14 12:31:21.335,101255,20114,21942,80927,104021
2025-04-14 12:31:21.346,101222,20120,21952,80964,104081
2025-04-14 12:31:21.354,101223,20122,21954,81003,104092
2025-04-14 12:31:21.371,101210,20125,21959,81031,104133
2025-04-14 12:31:21.378,101211,20131,21955,81051,104153
2025-04-14 12:31:21.387,101223,20130,21961,81051,104164
2025-04-14 12:31:21.399,101228,20132,21964,81043,104171
2025-04-14 12:31:21.406,101229,20135,21962,81029,104180
2025-04-14 12:31:21.418,101241,20130,21960,81016,104169
2025-04-14 12:31:21.437,101252,20128,21961,80994,104157
2025-04-14 12:31:21.439,101267,20126,21959,80958,104127
2025-04-14 12:31:21.443,101267,20126,21959,80958,104127
2025-04-14 12:31:21.447,101316,20128,21953,80911,104087
2025-04-14 12:31:21.458,101316,20125,21955,80887,104080
2025-04-14 12:31:21.466,101340,20128,21952,80857,104053
2025-04-14 12:31:21.478,101347,20131,21952,80842,104056
2025-04-14 12:31:21.502,101350,20134,21951,80831,104032
2025-04-14 12:31:21.504,101360,20135,21953,80823,104048
2025-04-14 12:31:21.506,101360,20137,21957,80828,104042
2025-04-14 12:31:21.519,101363,20142,21964,80821,104048
2025-04-14 12:31:21.527,101355,20151,21971,80831,104043
2025-04-14 12:31:21.538,101351,20156,21969,80854,104062
2025-04-14 12:31:21.547,101354,20162,21975,80871,104083
2025-04-14 12:31:21.566,101337,20171,21978,80890,104117
2025-04-14 12:31:21.568,101336,20177,21988,80933,104147
2025-04-14 12:31:21.579,101336,20186,22000,80963,104170
2025-04-14 12:31:21.586,101319,20199,22003,80996,104207
2025-04-14 12:31:21.598,101313,20209,22011,81032,104237
2025-04-14 12:31:21.605,101301,20213,22021,81060,104271
2025-04-14 12:31:21.630,101288,20219,22021,81073,104296
2025-04-14 12:31:21.632,101276,20224,22025,81074,104310
2025-04-14 12:31:21.638,101265,20226,22029,81084,104314
2025-04-14 12:31:21.650,101257,20225,22031,81100,104323
2025-04-14 12:31:21.659,101248,20220,22022,81085,104315
2025-04-14 12:31:21.670,101240,20210,22014,81063,104313
2025-04-14 12:31:21.677,101228,20200,21998,81049,104281
2025-04-14 12:31:21.694,101198,20181,21985,81034,104267
2025-04-14 12:31:21.698,101193,20165,21971,81005,104239
2025-04-14 12:31:21.711,101156,20148,21955,80988,104210
2025-04-14 12:31:21.718,101148,20127,21939,80960,104188
2025-04-14 12:31:21.730,101137,20110,21926,80949,104163
2025-04-14 12:31:21.738,101140,20098,21914,80943,104156
2025-04-14 12:31:21.759,101129,20082,21901,80935,104148
2025-04-14 12:31:21.760,101148,20071,21890,80934,104132
2025-04-14 12:31:21.771,101148,20067,21882,80940,104127
2025-04-14 12:31:21.779,101165,20064,21881,80946,104132
2025-04-14 12:31:21.790,101153,20059,21880,80949,104136
2025-04-14 12:31:21.798,101166,20060,21875,80983,104153
2025-04-14 12:31:21.823,101184,20063,21876,80984,104169
2025-04-14 12:31:21.824,101199,20063,21881,81001,104173
2025-04-14 12:31:21.831,101211,20070,21886,81012,104196
2025-04-14 12:31:21.842,101226,20075,21889,81038,104207
2025-04-14 12:31:21.850,101251,20084,21899,81056,104247
2025-04-14 12:31:21.858,101252,20090,21900,81076,104263
2025-04-14 12:31:21.871,101267,20099,21905,81104,104288
2025-04-14 12:31:21.888,101270,20106,21916,81117,104301
2025-04-14 12:31:21.891,101270,20116,21917,81142,104322
2025-04-14 12:31:21.903,101278,20123,21923,81162,104329
2025-04-14 12:31:21.910,101286,20123,21921,81171,104344
2025-04-14 12:31:21.922,101281,20132,21930,81192,104351
2025-04-14 12:31:21.930,101287,20135,21930,81215,104356
2025-04-14 12:31:21.952,101282,20134,21925,81226,104372
2025-04-14 12:31:21.953,101274,20137,21929,81229,104357
2025-04-14 12:31:21.962,101260,20134,21926,81243,104384
2025-04-14 12:31:21.970,101248,20130,21920,81251,104370
2025-04-14 12:31:21.982,101233,20134,21921,81262,104385
2025-04-14 12:31:21.990,101218,20128,21919,81266,104396
2025-04-14 12:31:22.016,101205,20125,21921,81275,104393
2025-04-14 12:31:22.017,101196,20127,21915,81285,104386
2025-04-14 12:31:22.022,101194,20125,21914,81302,104402
2025-04-14 12:31:22.030,101186,20124,21913,81303,104412
2025-04-14 12:31:22.043,101182,20123,21917,81315,104428
2025-04-14 12:31:22.050,101173,20127,21911,81339,104419
2025-04-14 12:31:22.062,101176,20130,21918,81343,104419
2025-04-14 12:31:22.079,101171,20130,21916,81349,104422
2025-04-14 12:31:22.082,101168,20136,21922,81361,104437
2025-04-14 12:31:22.090,101186,20139,21923,81380,104464
2025-04-14 12:31:22.102,101189,20143,21925,81385,104463
2025-04-14 12:31:22.114,101197,20153,21930,81418,104476
2025-04-14 12:31:22.122,101199,20156,21929,81422,104474
2025-04-14 12:31:22.144,101218,20159,21942,81446,104498
2025-04-14 12:31:22.146,101197,20172,21945,81479,104521
2025-04-14 12:31:22.154,101193,20178,21953,81499,104539
2025-04-14 12:31:22.162,101182,20182,21958,81523,104566
2025-04-14 12:31:22.174,101175,20190,21962,81545,104596
2025-04-14 12:31:22.182,101172,20198,21969,81581,104622
2025-04-14 12:31:22.211,101169,20206,21976,81607,104648
2025-04-14 12:31:22.212,101152,20218,21982,81638,104668
2025-04-14 12:31:22.214,101139,20222,21987,81649,104697
2025-04-14 12:31:22.222,101121,20228,21997,81670,104714
2025-04-14 12:31:22.234,101104,20233,22002,81687,104739
2025-04-14 12:31:22.247,101075,20237,22006,81704,104758
2025-04-14 12:31:22.248,101075,20237,22006,81704,104758
2025-04-14 12:31:22.254,101053,20245,22020,81725,104796
2025-04-14 12:31:22.278,101054,20256,22012,81723,104789
2025-04-14 12:31:22.279,101043,20257,22017,81717,104808
2025-04-14 12:31:22.282,101049,20257,22022,81703,104801
2025-04-14 12:31:22.295,101064,20256,22017,81672,104787
2025-04-14 12:31:22.302,101073,20254,22019,81644,104759
2025-04-14 12:31:22.314,101097,20254,22013,81619,104736
2025-04-14 12:31:22.322,101130,20251,22015,81568,104696
2025-04-14 12:31:22.342,101141,20245,22010,81531,104663
2025-04-14 12:31:22.343,101157,20249,22009,81506,104629
2025-04-14 12:31:22.354,101193,20247,22007,81468,104595
2025-04-14 12:31:22.362,101198,20247,22009,81443,104557
2025-04-14 12:31:22.374,101203,20238,22006,81405,104514
2025-04-14 12:31:22.386,101221,20240,21996,81371,104475
2025-04-14 12:31:22.406,101233,20237,21991,81333,104444
2025-04-14 12:31:22.407,101237,20227,21986,81303,104399
2025-04-14 12:31:22.415,101235,20217,21974,81283,104369
2025-04-14 12:31:22.426,101216,20207,21966,81245,104333
2025-04-14 12:31:22.434,101205,20190,21948,81223,104312
2025-04-14 12:31:22.446,101180,20175,21938,81194,104277
2025-04-14 12:31:22.454,101171,20160,21920,81170,104250
2025-04-14 12:31:22.470,101134,20143,21911,81152,104249
2025-04-14 12:31:22.474,101108,20135,21898,81132,104228
2025-04-14 12:31:22.486,101090,20118,21888,81118,104200
2025-04-14 12:31:22.494,101087,20109,21883,81124,104200
2025-04-14 12:31:22.506,101070,20100,21873,81112,104198
2025-04-14 12:31:22.514,101079,20096,21865,81107,104188
2025-04-14 12:31:22.534,101102,20093,21865,81108,104194
2025-04-14 12:31:22.535,101107,20089,21862,81105,104188
2025-04-14 12:31:22.546,101120,20083,21857,81104,104184
2025-04-14 12:31:22.554,101144,20087,21860,81095,104180
2025-04-14 12:31:22.566,101167,20084,21858,81079,104161
2025-04-14 12:31:22.573,101199,20085,21859,81062,104156
2025-04-14 12:31:22.597,101201,20093,21860,81050,104129
2025-04-14 12:31:22.599,101217,20092,21858,81036,104113
2025-04-14 12:31:22.606,101233,20091,21865,81015,104125
2025-04-14 12:31:22.614,101246,20096,21871,81003,104093
2025-04-14 12:31:22.626,101261,20102,21863,81005,104089
2025-04-14 12:31:22.638,101270,20106,21871,80988,104089
2025-04-14 12:31:22.645,101288,20112,21873,80981,104063
2025-04-14 12:31:22.663,101286,20108,21871,80974,104065
2025-04-14 12:31:22.666,101283,20114,21868,80975,104073
2025-04-14 12:31:22.678,101278,20110,21872,80991,104073
2025-04-14 12:31:22.685,101270,20117,21869,80993,104071
2025-04-14 12:31:22.698,101261,20118,21875,81007,104095
2025-04-14 12:31:22.705,101248,20121,21877,81015,104105
2025-04-14 12:31:22.726,101238,20117,21871,81036,104126
2025-04-14 12:31:22.728,101232,20117,21873,81054,104136
2025-04-14 12:31:22.738,101215,20119,21872,81056,104141
2025-04-14 12:31:22.746,101206,20119,21867,81068,104151
2025-04-14 12:31:22.758,101203,20119,21871,81058,104162
2025-04-14 12:31:22.766,101190,20119,21867,81054,104146
2025-04-14 12:31:22.791,101179,20116,21869,81058,104152
2025-04-14 12:31:22.792,101175,20116,21866,81040,104127
2025-04-14 12:31:22.798,101174,20115,21864,81040,104135
2025-04-14 12:31:22.806,101176,20117,21858,81018,104110
2025-04-14 12:31:22.818,101185,20112,21865,81002,104106
2025-04-14 12:31:22.826,101183,20114,21865,80993,104071
2025-04-14 12:31:22.838,101202,20117,21863,80987,104074
2025-04-14 12:31:22.854,101207,20122,21867,80979,104067
2025-04-14 12:31:22.858,101206,20120,21863,80981,104077
2025-04-14 12:31:22.870,101222,20124,21867,80998,104066
2025-04-14 12:31:22.877,101215,20123,21873,80998,104086
2025-04-14 12:31:22.890,101225,20131,21872,81013,104080
2025-04-14 12:31:22.898,101222,20135,21881,81032,104090
2025-04-14 12:31:22.920,101211,20145,21883,81041,104116
2025-04-14 12:31:22.921,101221,20154,21889,81065,104132
2025-04-14 12:31:22.930,101217,20153,21897,81093,104150
2025-04-14 12:31:22.938,101202,20157,21898,81113,104178
2025-04-14 12:31:22.950,101200,20170,21907,81138,104185
2025-04-14 12:31:22.957,101184,20174,21909,81176,104228
2025-04-14 12:31:22.985,101163,20183,21917,81186,104256
2025-04-14 12:31:22.986,101144,20191,21923,81219,104279
2025-04-14 12:31:22.990,101140,20194,21930,81236,104311
2025-04-14 12:31:22.998,101137,20202,21936,81255,104342
2025-04-14 12:31:23.011,101115,20208,21936,81266,104362
2025-04-14 12:31:23.017,101118,20207,21943,81289,104384
2025-04-14 12:31:23.030,101084,20218,21947,81296,104396
2025-04-14 12:31:23.048,101088,20216,21951,81308,104397
2025-04-14 12:31:23.050,101087,20217,21956,81307,104390
2025-04-14 12:31:23.054,101087,20217,21956,81307,104390
2025-04-14 12:31:23.058,101091,20223,21960,81313,104426
2025-04-14 12:31:23.069,101099,20229,21965,81317,104414
2025-04-14 12:31:23.077,101102,20231,21967,81329,104426
2025-04-14 12:31:23.090,101109,20238,21968,81317,104435
2025-04-14 12:31:23.112,101123,20239,21973,81336,104432
2025-04-14 12:31:23.113,101119,20242,21975,81330,104445
2025-04-14 12:31:23.122,101138,20247,21976,81319,104444
2025-04-14 12:31:23.129,101126,20250,21975,81305,104417
2025-04-14 12:31:23.142,101131,20242,21971,81277,104415
2025-04-14 12:31:23.149,101142,20239,21969,81252,104374
2025-04-14 12:31:23.176,101146,20232,21959,81224,104352
2025-04-14 12:31:23.177,101147,20217,21943,81181,104312
2025-04-14 12:31:23.182,101144,20203,21928,81153,104270
2025-04-14 12:31:23.190,101137,20189,21917,81107,104237
2025-04-14 12:31:23.202,101133,20167,21898,81058,104180
2025-04-14 12:31:23.210,101126,20147,21885,81029,104144
2025-04-14 12:31:23.222,101107,20129,21868,80998,104114
2025-04-14 12:31:23.240,101093,20114,21851,80969,104055
2025-04-14 12:31:23.242,101070,20102,21839,80939,104033
2025-04-14 12:31:23.250,101060,20093,21832,80912,104032
2025-04-14 12:31:23.261,101055,20082,21823,80901,104002
2025-04-14 12:31:23.270,101064,20077,21817,80884,103988
2025-04-14 12:31:23.281,101053,20078,21816,80877,103979
2025-04-14 12:31:23.305,101074,20073,21815,80870,103983
2025-04-14 12:31:23.307,101081,20076,21816,80880,103986
2025-04-14 12:31:23.309,101096,20076,21811,80894,104000
2025-04-14 12:31:23.322,101119,20077,21817,80908,104010
2025-04-14 12:31:23.329,101136,20085,21822,80922,104020
2025-04-14 12:31:23.342,101154,20092,21831,80957,104046
2025-04-14 12:31:23.354,101171,20098,21836,80990,104069
2025-04-14 12:31:23.371,101188,20105,21846,81017,104083
2025-04-14 12:31:23.374,101187,20117,21848,81061,104128
2025-04-14 12:31:23.382,101204,20125,21858,81103,104167
2025-04-14 12:31:23.393,101191,20132,21862,81150,104196
2025-04-14 12:31:23.402,101180,20141,21874,81178,104246
2025-04-14 12:31:23.414,101173,20147,21875,81224,104274
2025-04-14 12:31:23.436,101144,20146,21871,81247,104293
