Timestamp,PPG1,PPG2,PPG3,PPG4,PPG5,PPG6
2025-02-21 18:07:33.996,87685,23432,17205,3,172561,249379
2025-02-21 18:07:34.170,87639,23367,17170,4,172533,249283
2025-02-21 18:07:34.173,87584,23166,17058,5,172534,249122
2025-02-21 18:07:34.176,87636,23165,17054,4,172598,249164
2025-02-21 18:07:34.693,87644,23145,17046,4,172641,249156
2025-02-21 18:07:34.696,87683,23181,17074,3,172707,249237
2025-02-21 18:07:34.698,87729,23262,17128,3,172788,249316
2025-02-21 18:07:34.700,87776,23339,17184,3,172837,249399
2025-02-21 18:07:34.701,87769,23325,17194,3,172818,249373
2025-02-21 18:07:34.824,87678,23106,17093,3,172767,249182
2025-02-21 18:07:34.868,87734,23094,17097,4,172859,249249
2025-02-21 18:07:34.967,87752,23088,17107,3,172935,249260
2025-02-21 18:07:35.089,87775,23123,17135,4,172977,249306
2025-02-21 18:07:35.204,87818,23210,17193,5,173027,249376
2025-02-21 18:07:35.336,87856,23295,17251,4,173090,249459
2025-02-21 18:07:35.371,87900,23381,17315,4,173141,249562
2025-02-21 18:07:35.471,87816,23228,17255,3,173008,249412
2025-02-21 18:07:35.576,87824,23123,17209,4,172997,249404
2025-02-21 18:07:35.692,87883,23138,17228,4,173041,249463
2025-02-21 18:07:35.825,87913,23151,17249,4,173119,249499
2025-02-21 18:07:35.863,87966,23231,17304,4,173160,249610
2025-02-21 18:07:35.963,88006,23329,17373,3,173223,249712
2025-02-21 18:07:36.091,88031,23427,17440,3,173263,249789
2025-02-21 18:07:36.215,88051,23517,17499,4,173286,249843
2025-02-21 18:07:36.263,87944,23353,17427,4,173152,249625
2025-02-21 18:07:36.363,87949,23282,17391,3,173164,249623
2025-02-21 18:07:36.478,87967,23303,17404,4,173186,249644
2025-02-21 18:07:36.621,87955,23313,17406,3,173214,249619
2025-02-21 18:07:36.667,87957,23380,17438,3,173211,249644
2025-02-21 18:07:36.767,87957,23462,17475,3,173204,249644
2025-02-21 18:07:36.907,87945,23533,17507,3,173202,249633
2025-02-21 18:07:37.025,87963,23598,17539,4,173217,249680
2025-02-21 18:07:37.059,87850,23406,17444,3,173107,249444
2025-02-21 18:07:37.170,87897,23387,17434,3,173172,249519
2025-02-21 18:07:37.290,87915,23413,17448,3,173203,249560
2025-02-21 18:07:37.424,87927,23440,17464,4,173252,249591
2025-02-21 18:07:37.458,87978,23528,17515,3,173256,249668
2025-02-21 18:07:37.558,88020,23627,17577,3,173293,249776
2025-02-21 18:07:37.887,88053,23720,17633,3,173328,249875
2025-02-21 18:07:37.889,88056,23758,17657,3,173315,249897
2025-02-21 18:07:37.891,87924,23547,17546,3,173149,249678
2025-02-21 18:07:38.047,87986,23548,17542,3,173191,249791
2025-02-21 18:07:38.063,88015,23570,17551,3,173260,249848
2025-02-21 18:07:38.244,88046,23606,17567,3,173336,249901
2025-02-21 18:07:38.254,88078,23694,17608,4,173331,249958
2025-02-21 18:07:38.498,88078,23777,17643,3,173320,249962
2025-02-21 18:07:38.500,88084,23858,17681,4,173334,250003
2025-02-21 18:07:38.671,88050,23859,17673,4,173281,249941
2025-02-21 18:07:38.673,87945,23679,17560,4,173265,249766
2025-02-21 18:07:38.828,87994,23708,17561,4,173387,249854
2025-02-21 18:07:38.859,87971,23704,17546,4,173415,249801
2025-02-21 18:07:39.007,87971,23723,17539,3,173466,249794
2025-02-21 18:07:39.156,87985,23791,17565,3,173456,249809
2025-02-21 18:07:39.158,88005,23868,17599,2,173508,249867
2025-02-21 18:07:39.286,88025,23942,17632,3,173530,249910
2025-02-21 18:07:39.442,87919,23795,17543,2,173451,249712
2025-02-21 18:07:39.451,87920,23711,17478,4,173539,249715
2025-02-21 18:07:39.571,87962,23738,17484,3,173603,249775
2025-02-21 18:07:39.727,87961,23734,17471,3,173679,249767
2025-02-21 18:07:39.750,88003,23795,17499,3,173739,249834
2025-02-21 18:07:39.898,88040,23876,17546,3,173795,249897
2025-02-21 18:07:40.052,88072,23952,17590,3,173830,249968
2025-02-21 18:07:40.054,88073,23973,17604,3,173825,249977
2025-02-21 18:07:40.182,87968,23767,17484,3,173766,249789
2025-02-21 18:07:40.338,88030,23762,17474,3,173871,249885
2025-02-21 18:07:40.346,88049,23766,17470,4,173938,249913
2025-02-21 18:07:40.466,88071,23789,17479,4,174025,249947
2025-02-21 18:07:40.618,88104,23865,17521,3,174069,250013
2025-02-21 18:07:40.646,88115,23940,17562,3,174110,250082
2025-02-21 18:07:40.797,88116,24005,17597,3,174143,250092
2025-02-21 18:07:40.949,88036,23902,17537,3,174103,249978
2025-02-21 18:07:40.952,88003,23803,17476,3,174228,250027
2025-02-21 18:07:41.091,88006,23839,17488,4,174342,250132
2025-02-21 18:07:41.246,87919,23798,17456,3,174389,250053
2025-02-21 18:07:41.250,87940,23844,17478,3,174566,250204
2025-02-21 18:07:41.375,88006,23921,17534,3,174672,250358
2025-02-21 18:07:41.529,87999,23971,17567,2,174691,250367
2025-02-21 18:07:41.542,87962,23932,17544,2,174709,250288
2025-02-21 18:07:41.715,87965,23788,17466,3,174826,250258
2025-02-21 18:07:41.743,88165,23880,17521,4,175063,250563
2025-02-21 18:07:41.863,88303,23945,17573,3,175343,250858
2025-02-21 18:07:42.002,88392,24018,17619,3,175486,251091
2025-02-21 18:07:42.044,88489,24128,17691,4,175612,251340
2025-02-21 18:07:42.164,88538,24223,17760,3,175715,251522
2025-02-21 18:07:42.298,88578,24279,17810,3,175727,251621
2025-02-21 18:07:42.347,88488,24089,17722,4,175585,251440
2025-02-21 18:07:42.507,88559,24082,17730,4,175663,251576
2025-02-21 18:07:42.538,88604,24112,17758,3,175842,251698
2025-02-21 18:07:42.639,88611,24130,17772,4,175888,251719
2025-02-21 18:07:42.801,88677,24223,17836,4,176013,251846
2025-02-21 18:07:42.839,88747,24345,17921,5,176230,252095
2025-02-21 18:07:42.943,88837,24465,18001,3,176473,252402
2025-02-21 18:07:43.101,88750,24294,17898,4,176330,252189
2025-02-21 18:07:43.142,88868,24219,17865,3,176256,252144
2025-02-21 18:07:43.288,89186,24286,17962,3,176448,252467
2025-02-21 18:07:43.334,89413,24329,18050,4,176578,252734
2025-02-21 18:07:43.438,89652,24440,18183,4,176785,253078
2025-02-21 18:07:43.586,89872,24565,18315,3,177007,253435
2025-02-21 18:07:43.635,90031,24660,18423,3,177128,253638
2025-02-21 18:07:43.778,90026,24535,18415,4,177033,253496
2025-02-21 18:07:43.930,90086,24453,18420,3,177075,253486
2025-02-21 18:07:43.939,90244,24492,18494,4,177347,253731
2025-02-21 18:07:44.098,90329,24508,18550,3,177512,253866
2025-02-21 18:07:44.130,90462,24587,18636,3,177693,254086
2025-02-21 18:07:44.302,90553,24671,18717,3,177748,254181
2025-02-21 18:07:44.330,90625,24762,18800,3,177862,254289
2025-02-21 18:07:44.455,90665,24744,18827,4,177935,254322
2025-02-21 18:07:44.593,90609,24584,18772,4,177955,254176
2025-02-21 18:07:44.635,90669,24586,18805,5,178083,254236
2025-02-21 18:07:44.767,90710,24588,18829,3,178260,254294
2025-02-21 18:07:44.908,90777,24640,18879,3,178371,254394
2025-02-21 18:07:44.935,90853,24729,18952,3,178420,254517
2025-02-21 18:07:45.121,90930,24822,19034,4,178541,254684
2025-02-21 18:07:45.126,90971,24866,19087,3,178624,254760
2025-02-21 18:07:45.257,90855,24663,19000,3,178526,254482
2025-02-21 18:07:45.416,90929,24659,19017,3,178577,254542
2025-02-21 18:07:45.427,90999,24670,19051,3,178685,254656
2025-02-21 18:07:45.548,90971,24656,19054,4,178658,254578
2025-02-21 18:07:45.719,90968,24701,19091,3,178672,254544
2025-02-21 18:07:45.731,91077,24802,19170,3,178857,254767
2025-02-21 18:07:45.865,91144,24852,19225,3,178933,254846
2025-02-21 18:07:46.054,91019,24639,19143,3,178817,254534
2025-02-21 18:07:46.056,91095,24621,19162,4,178846,254610
2025-02-21 18:07:46.241,91116,24631,19192,3,178871,254680
2025-02-21 18:07:46.243,91126,24641,19218,3,178947,254744
2025-02-21 18:07:46.411,91159,24705,19268,4,179018,254791
2025-02-21 18:07:46.422,91182,24785,19324,3,179109,254841
2025-02-21 18:07:46.549,91196,24850,19371,3,179170,254855
2025-02-21 18:07:46.721,91044,24671,19285,4,178990,254551
2025-02-21 18:07:46.727,91023,24598,19250,3,178879,254446
2025-02-21 18:07:46.864,91052,24618,19270,4,178928,254465
2025-02-21 18:07:47.034,91052,24616,19277,3,179014,254429
2025-02-21 18:07:47.037,91111,24684,19325,2,179131,254493
2025-02-21 18:07:47.178,91156,24758,19380,3,179218,254566
2025-02-21 18:07:47.219,91197,24837,19439,4,179327,254659
2025-02-21 18:07:47.349,91174,24741,19419,4,179288,254627
2025-02-21 18:07:47.487,91266,24674,19422,3,179287,254775
2025-02-21 18:07:47.522,91286,24681,19448,4,179262,254825
2025-02-21 18:07:47.660,91305,24672,19463,4,179334,254877
2025-02-21 18:07:47.804,91417,24752,19531,3,179504,255111
2025-02-21 18:07:47.823,91499,24831,19597,4,179601,255256
2025-02-21 18:07:48.014,91506,24885,19638,2,179612,255228
2025-02-21 18:07:48.016,91494,24834,19633,3,179613,255204
2025-02-21 18:07:48.150,91536,24702,19601,4,179586,255262
2025-02-21 18:07:48.324,91521,24687,19604,4,179503,255266
2025-02-21 18:07:48.326,91342,24605,19528,4,179326,254966
2025-02-21 18:07:48.516,91415,24674,19558,3,179467,255135
2025-02-21 18:07:48.519,91262,24673,19509,4,179189,254776
2025-02-21 18:07:48.679,91425,24829,19620,3,179547,255183
2025-02-21 18:07:48.718,91612,24980,19735,3,179766,255572
2025-02-21 18:07:48.821,91276,24704,19582,3,179330,254853
2025-02-21 18:07:48.987,91391,24697,19583,4,179423,254989
2025-02-21 18:07:49.011,91340,24684,19564,3,179374,254877
2025-02-21 18:07:49.127,91328,24684,19560,3,179530,254869
2025-02-21 18:07:49.301,91507,24806,19636,3,179771,255166
2025-02-21 18:07:49.310,91622,24912,19703,4,179869,255346
2025-02-21 18:07:49.437,91582,24944,19712,4,179742,255209
2025-02-21 18:07:49.613,91458,24744,19616,4,179627,254966
2025-02-21 18:07:49.616,91405,24654,19564,3,179451,254848
2025-02-21 18:07:49.797,91270,24603,19499,3,179240,254539
2025-02-21 18:07:49.815,91255,24517,19368,2,178941,254175
2025-02-21 18:07:49.959,91290,24547,19357,3,178837,254023
2025-02-21 18:07:50.006,91271,24609,19376,3,178860,253996
2025-02-21 18:07:50.107,91486,24760,19491,3,179036,254327
2025-02-21 18:07:50.310,91426,24715,19488,3,178985,254188
2025-02-21 18:07:50.313,91275,24547,19377,3,178900,253905
2025-02-21 18:07:50.448,91370,24611,19401,3,179095,254089
2025-02-21 18:07:50.622,91381,24619,19388,2,179138,254036
2025-02-21 18:07:50.624,91416,24684,19404,4,179169,254052
2025-02-21 18:07:50.763,91480,24780,19443,3,179195,254123
2025-02-21 18:07:50.932,91569,24880,19495,5,179252,254306
2025-02-21 18:07:50.934,91565,24867,19476,4,179097,254236
2025-02-21 18:07:51.075,91433,24659,19361,5,178858,253979
2025-02-21 18:07:51.103,91466,24651,19341,3,178653,253938
2025-02-21 18:07:51.240,91394,24622,19305,3,178567,253806
2025-02-21 18:07:51.381,91399,24646,19291,3,178587,253760
2025-02-21 18:07:51.403,91414,24716,19311,2,178629,253731
2025-02-21 18:07:51.609,91409,24790,19330,3,178632,253736
2025-02-21 18:07:51.611,91379,24804,19311,2,178473,253615
2025-02-21 18:07:51.763,91149,24536,19151,3,178112,253100
2025-02-21 18:07:51.807,91058,24464,19065,3,177844,252861
2025-02-21 18:07:51.999,91079,24487,19057,3,177926,252912
2025-02-21 18:07:52.006,91068,24493,19038,3,177959,252849
2025-02-21 18:07:52.139,91090,24568,19059,4,177982,252868
2025-02-21 18:07:52.310,91049,24628,19059,4,177912,252813
2025-02-21 18:07:52.313,90983,24662,19047,5,177780,252731
2025-02-21 18:07:52.448,90795,24443,18906,4,177517,252394
2025-02-21 18:07:52.633,90697,24351,18818,4,177244,252138
2025-02-21 18:07:52.636,90665,24366,18802,4,177169,252069
2025-02-21 18:07:52.779,90630,24370,18783,3,177160,252021
2025-02-21 18:07:52.802,90552,24396,18770,4,177049,251888
2025-02-21 18:07:52.946,90562,24464,18796,3,177044,251910
2025-02-21 18:07:53.089,90557,24532,18820,3,176993,251893
2025-02-21 18:07:53.103,90441,24388,18735,4,176816,251683
2025-02-21 18:07:53.313,90361,24265,18644,3,176483,251471
2025-02-21 18:07:53.315,90315,24262,18620,4,176284,251360
2025-02-21 18:07:53.448,90258,24237,18594,3,176225,251273
2025-02-21 18:07:53.495,90207,24270,18601,3,176185,251256
2025-02-21 18:07:53.673,90145,24317,18617,4,176133,251235
2025-02-21 18:07:53.699,90049,24346,18601,3,176051,251152
2025-02-21 18:07:53.807,89843,24126,18455,3,175834,250770
2025-02-21 18:07:54.018,89797,23997,18379,4,175637,250531
2025-02-21 18:07:54.021,89807,23997,18388,3,175516,250488
2025-02-21 18:07:54.157,89674,23920,18299,3,175209,250195
2025-02-21 18:07:54.191,89701,23984,18333,3,175223,250272
2025-02-21 18:07:54.331,89766,24106,18419,4,175375,250504
2025-02-21 18:07:54.476,89771,24200,18477,4,175494,250617
2025-02-21 18:07:54.491,89660,24049,18392,3,175460,250454
2025-02-21 18:07:54.650,89634,23908,18310,4,175367,250316
2025-02-21 18:07:54.694,89650,23889,18296,4,175245,250312
2025-02-21 18:07:54.851,89697,23891,18297,4,175223,250373
2025-02-21 18:07:54.894,89737,23936,18322,3,175197,250451
2025-02-21 18:07:55.076,89773,24010,18363,3,175193,250527
2025-02-21 18:07:55.095,89798,24081,18404,4,175208,250591
2025-02-21 18:07:55.235,89674,23992,18350,4,175126,250417
2025-02-21 18:07:55.424,89536,23788,18232,4,175065,250158
2025-02-21 18:07:55.428,89554,23777,18218,4,175004,250143
2025-02-21 18:07:55.649,89560,23778,18209,4,174983,250136
2025-02-21 18:07:55.652,89584,23813,18225,3,174964,250185
2025-02-21 18:07:55.687,89610,23888,18263,3,174961,250242
2025-02-21 18:07:55.877,89585,23945,18282,4,174919,250243
2025-02-21 18:07:55.890,89502,23917,18230,4,174729,250043
2025-02-21 18:07:56.044,89350,23669,18088,3,174522,249678
2025-02-21 18:07:56.091,89515,23682,18127,3,174675,249908
2025-02-21 18:07:56.267,89660,23740,18192,3,174868,250253
2025-02-21 18:07:56.282,89769,23802,18264,4,175055,250581
2025-02-21 18:07:56.434,89817,23924,18384,3,175340,250980
2025-02-21 18:07:56.483,89875,24089,18531,4,175733,251465
2025-02-21 18:07:56.686,90047,24289,18691,4,176125,252085
2025-02-21 18:07:56.688,89963,24395,18755,3,176214,252214
2025-02-21 18:07:56.829,89788,24263,18706,3,176384,252145
2025-02-21 18:07:57.012,89760,24212,18716,3,176827,252485
2025-02-21 18:07:57.014,89364,24176,18661,3,177102,252525
2025-02-21 18:07:57.222,89571,24373,18874,3,178300,253576
2025-02-21 18:07:57.225,89953,24640,19117,4,179328,254614
2025-02-21 18:07:57.392,90077,24860,19327,3,179994,255164
2025-02-21 18:07:57.395,90232,25071,19517,4,180652,255893
2025-02-21 18:07:57.538,90318,25230,19647,4,180868,256252
2025-02-21 18:07:57.583,90538,25339,19730,3,180978,256630
2025-02-21 18:07:57.722,90793,25178,19641,3,180657,256437
2025-02-21 18:07:57.870,91106,25275,19730,3,180543,256526
2025-02-21 18:07:57.883,91019,25341,19775,3,180486,256495
2025-02-21 18:07:58.059,90774,25302,19732,3,180251,256128
2025-02-21 18:07:58.066,90490,25199,19588,3,179532,255308
2025-02-21 18:07:58.255,90088,24957,19300,3,178183,253699
2025-02-21 18:07:58.266,89947,24903,19231,4,177433,252617
2025-02-21 18:07:58.439,89894,24887,19253,4,177657,252433
2025-02-21 18:07:58.466,89398,24696,19150,3,177881,251983
2025-02-21 18:07:58.593,89368,24870,19270,3,178698,252696
2025-02-21 18:07:58.773,89157,24841,19190,4,178617,252532
2025-02-21 18:07:58.776,89166,24992,19294,3,179100,253027
2025-02-21 18:07:58.996,89425,25332,19554,4,180180,254442
2025-02-21 18:07:58.999,89696,25646,19775,4,180882,255558
2025-02-21 18:07:59.186,90143,25927,19983,4,181454,256664
2025-02-21 18:07:59.189,89938,25636,19775,3,180687,255919
2025-02-21 18:07:59.333,89602,25449,19631,3,179861,254897
2025-02-21 18:07:59.367,89490,25417,19545,3,179497,254484
2025-02-21 18:07:59.508,89050,25191,19291,3,178480,253186
2025-02-21 18:07:59.654,88979,25114,19102,3,178108,252724
2025-02-21 18:07:59.670,89157,25132,19067,4,177688,252190
2025-02-21 18:07:59.834,89074,25175,19117,3,177464,251915
2025-02-21 18:07:59.858,88888,25009,19014,4,177383,251740
2025-02-21 18:07:59.983,88879,24968,18922,3,177197,251591
2025-02-21 18:08:00.223,88839,25017,18958,4,177039,251513
2025-02-21 18:08:00.226,88695,25010,18961,3,176861,251430
2025-02-21 18:08:00.263,88673,25049,18905,5,176757,251419
2025-02-21 18:08:00.370,88678,25143,18958,4,176845,251503
2025-02-21 18:08:00.560,88443,25131,18988,3,176742,251323
2025-02-21 18:08:00.563,88157,25030,19046,3,176984,251504
2025-02-21 18:08:00.783,87927,24995,18982,3,176987,251508
2025-02-21 18:08:00.786,88087,25000,18993,3,177048,251508
2025-02-21 18:08:00.968,88114,24951,18947,4,177032,251258
2025-02-21 18:08:00.971,88319,24869,18830,3,176724,250886
2025-02-21 18:08:01.122,88789,24856,18817,4,176439,250753
2025-02-21 18:08:01.160,89164,24687,18753,4,176103,250533
2025-02-21 18:08:01.302,89386,24648,18785,3,176045,250688
2025-02-21 18:08:01.462,89487,24683,18823,4,175901,250713
2025-02-21 18:08:01.465,89571,24644,18828,3,175697,250582
2025-02-21 18:08:01.643,89761,24641,18840,4,175523,250549
2025-02-21 18:08:01.650,90045,24695,18928,4,175380,250552
2025-02-21 18:08:01.860,90224,24631,18935,4,175143,250358
2025-02-21 18:08:01.862,90392,24465,18889,5,174969,250223
2025-02-21 18:08:02.029,90546,24502,18934,3,174944,250280
2025-02-21 18:08:02.054,90675,24518,18966,3,174866,250210
2025-02-21 18:08:02.181,90751,24507,18997,2,174762,250110
2025-02-21 18:08:02.451,90884,24540,19037,3,174662,250090
2025-02-21 18:08:02.453,91053,24549,19043,4,174458,249933
2025-02-21 18:08:02.458,91153,24404,18990,4,174215,249738
2025-02-21 18:08:02.601,91304,24358,19010,3,174066,249787
2025-02-21 18:08:02.646,91428,24389,19033,3,173835,249739
2025-02-21 18:08:02.773,91540,24383,19055,3,173646,249699
2025-02-21 18:08:02.922,91655,24419,19097,3,173531,249746
2025-02-21 18:08:02.950,91759,24444,19117,3,173356,249733
2025-02-21 18:08:03.103,91871,24427,19121,3,173143,249668
2025-02-21 18:08:03.150,91947,24274,19073,3,172932,249570
2025-02-21 18:08:03.252,92235,24274,19080,4,172845,249687
2025-02-21 18:08:03.434,92521,24274,19105,4,172857,249905
2025-02-21 18:08:03.450,92805,24300,19160,4,172955,250190
2025-02-21 18:08:03.639,93098,24361,19219,3,173047,250482
2025-02-21 18:08:03.642,93379,24438,19294,3,173175,250786
2025-02-21 18:08:03.809,93526,24410,19330,4,173233,250903
2025-02-21 18:08:03.841,93529,24346,19364,3,173234,250907
2025-02-21 18:08:03.955,93557,24427,19443,3,173266,250972
2025-02-21 18:08:04.172,93560,24456,19492,3,173205,250898
2025-02-21 18:08:04.175,93524,24503,19544,4,173092,250757
2025-02-21 18:08:04.321,93510,24579,19612,4,173026,250697
2025-02-21 18:08:04.338,93448,24645,19660,4,172895,250551
2025-02-21 18:08:04.500,93410,24583,19630,3,172701,250294
2025-02-21 18:08:04.538,93288,24466,19574,3,172500,250037
2025-02-21 18:08:04.640,93200,24493,19591,3,172404,250002
2025-02-21 18:08:04.827,93025,24500,19618,3,172244,249778
2025-02-21 18:08:04.830,93040,24595,19661,4,172341,249883
2025-02-21 18:08:04.983,93113,24672,19699,4,172355,249966
2025-02-21 18:08:05.031,92977,24723,19731,4,172300,249929
2025-02-21 18:08:05.220,92861,24621,19687,3,172172,249744
2025-02-21 18:08:05.230,92567,24512,19615,4,172121,249639
2025-02-21 18:08:05.361,92537,24587,19657,3,172345,249911
2025-02-21 18:08:05.541,92354,24649,19763,3,172529,249959
2025-02-21 18:08:05.544,92056,24715,19806,4,172673,249989
2025-02-21 18:08:05.684,92015,24807,19861,4,172873,250135
2025-02-21 18:08:05.726,91453,24888,19964,4,173152,250318
2025-02-21 18:08:05.929,90805,24783,19938,4,173485,250592
2025-02-21 18:08:05.931,90703,24718,19879,3,173681,250965
2025-02-21 18:08:06.075,90303,24662,19759,4,173869,251391
2025-02-21 18:08:06.249,90033,24605,19681,4,174134,251808
2025-02-21 18:08:06.252,89801,24616,19675,4,174385,252179
2025-02-21 18:08:06.402,89918,24549,19537,3,174473,252547
2025-02-21 18:08:06.429,90770,24514,19446,4,174958,253582
2025-02-21 18:08:06.585,92049,24448,19415,3,176001,255300
2025-02-21 18:08:06.622,92990,24619,19600,4,177982,258030
2025-02-21 18:08:06.730,93170,24998,20000,3,179652,260180
2025-02-21 18:08:06.962,91896,25040,20123,4,179036,259398
2025-02-21 18:08:06.964,91179,25023,20075,5,178587,259024
2025-02-21 18:08:07.111,89675,24766,19822,4,176703,256361
2025-02-21 18:08:07.126,89932,24675,19689,5,176084,255757
2025-02-21 18:08:07.290,89309,24443,19547,3,175222,254620
2025-02-21 18:08:07.318,87378,24218,19226,3,175239,254512
2025-02-21 18:08:07.508,86112,24403,19176,2,179581,259382
2025-02-21 18:08:07.517,86069,24493,19189,4,180207,260046
2025-02-21 18:08:07.679,87385,24806,19397,3,181391,261759
2025-02-21 18:08:07.722,87699,25023,19611,5,181050,261460
2025-02-21 18:08:07.826,87812,25198,19830,4,181322,261682
2025-02-21 18:08:08.001,87546,25160,19902,3,181368,261342
2025-02-21 18:08:08.021,87702,25231,19973,3,181206,260921
2025-02-21 18:08:08.149,89739,25207,20069,3,179224,258644
2025-02-21 18:08:08.345,92891,25531,20572,3,178580,257703
2025-02-21 18:08:08.348,94082,26050,21014,3,179644,258514
2025-02-21 18:08:08.493,93579,26598,21508,3,181300,260205
2025-02-21 18:08:08.517,93080,26726,21630,4,181609,260335
2025-02-21 18:08:08.732,93341,26453,21304,4,180679,259186
2025-02-21 18:08:08.734,94907,26214,21043,3,178790,257029
2025-02-21 18:08:08.877,95684,25968,20691,3,177573,255399
2025-02-21 18:08:08.918,95995,25807,20430,3,176721,254940
2025-02-21 18:08:09.059,95922,25791,20328,4,173972,254206
2025-02-21 18:08:09.263,96324,25989,20305,4,173677,255530
2025-02-21 18:08:09.266,96718,25813,20100,3,173613,255971
2025-02-21 18:08:09.443,97110,25468,19847,2,173637,255651
2025-02-21 18:08:09.445,97247,25133,19652,3,173325,254555
2025-02-21 18:08:09.643,97386,25072,19722,3,173494,254294
2025-02-21 18:08:09.645,97286,25074,19832,4,173313,253740
2025-02-21 18:08:09.827,97409,25214,19958,4,173709,254022
2025-02-21 18:08:09.830,97486,25351,20056,5,174120,254323
2025-02-21 18:08:09.970,97230,25292,20127,4,174071,254054
2025-02-21 18:08:10.017,96572,25212,20329,3,173975,253574
2025-02-21 18:08:10.152,96351,25486,20829,2,174914,254636
2025-02-21 18:08:10.299,96108,25739,21273,3,175477,255085
2025-02-21 18:08:10.310,96172,26124,21707,3,176233,256056
2025-02-21 18:08:10.539,96199,26347,21802,4,176750,256691
2025-02-21 18:08:10.542,95797,26151,21685,3,176230,255831
2025-02-21 18:08:10.686,94611,25743,21394,4,175202,253282
2025-02-21 18:08:10.713,94326,25682,21402,3,175479,253153
2025-02-21 18:08:10.878,94577,25910,21618,4,176698,254706
2025-02-21 18:08:10.913,94731,26034,21723,4,177188,255600
2025-02-21 18:08:11.087,94527,25921,21663,4,176874,255105
2025-02-21 18:08:11.106,93585,25659,21490,4,176279,253685
2025-02-21 18:08:11.268,92958,25729,21563,4,176104,253127
2025-02-21 18:08:11.306,93477,26090,21712,4,177034,254534
2025-02-21 18:08:11.417,94362,26143,21634,4,177755,255844
2025-02-21 18:08:11.596,94680,25932,21361,4,177402,255583
2025-02-21 18:08:11.609,94030,25331,20925,5,175715,253193
2025-02-21 18:08:11.746,93338,25106,20783,3,174518,251193
2025-02-21 18:08:11.929,93561,25614,21127,3,176126,253324
2025-02-21 18:08:11.932,93749,25940,21486,3,177385,254924
2025-02-21 18:08:12.079,93253,25956,21627,3,177217,254557
2025-02-21 18:08:12.102,92529,25731,21479,3,176332,253274
2025-02-21 18:08:12.313,91842,25327,20905,4,174295,250819
2025-02-21 18:08:12.316,92801,25822,21110,3,176149,253863
2025-02-21 18:08:12.459,93892,26146,21293,3,177529,255983
2025-02-21 18:08:12.506,93867,25651,20944,3,176317,254258
2025-02-21 18:08:12.639,92611,25209,20556,3,173916,250664
2025-02-21 18:08:12.787,92998,25805,20850,3,175507,253088
2025-02-21 18:08:12.790,93376,26165,21138,4,177033,255792
2025-02-21 18:08:12.970,93174,25923,21017,4,176575,254899
2025-02-21 18:08:12.990,92397,25266,20327,4,174627,251446
2025-02-21 18:08:13.112,93259,25691,20383,4,175795,253437
2025-02-21 18:08:13.298,94395,25973,20512,3,177067,255612
2025-02-21 18:08:13.301,94822,25800,20416,4,176799,255423
2025-02-21 18:08:13.452,93960,25404,20174,3,174902,252244
2025-02-21 18:08:13.489,94258,25852,20453,4,175948,254065
2025-02-21 18:08:13.652,94527,26262,20908,3,178106,257167
2025-02-21 18:08:13.694,93922,25826,20651,4,177479,255609
2025-02-21 18:08:13.877,93587,25808,20561,3,177014,254590
2025-02-21 18:08:13.885,94527,26246,20794,3,177908,256540
2025-02-21 18:08:14.049,96094,26668,21057,3,179511,259064
2025-02-21 18:08:14.085,95823,26191,20861,3,178049,256944
2025-02-21 18:08:14.201,94979,26114,20874,3,176559,254719
2025-02-21 18:08:14.421,95205,26856,21499,4,178441,257638
2025-02-21 18:08:14.424,95458,27171,21857,4,180128,259759
2025-02-21 18:08:14.631,94799,26373,21349,3,178215,256623
2025-02-21 18:08:14.634,94301,26412,21154,2,177838,255699
2025-02-21 18:08:14.669,95366,26878,21354,3,179136,258078
2025-02-21 18:08:14.811,96439,27187,21570,4,180063,259811
2025-02-21 18:08:14.958,95575,26513,21296,3,178145,256665
2025-02-21 18:08:14.974,94971,26579,21391,3,177572,255347
2025-02-21 18:08:15.140,95281,27369,21965,4,179782,258747
2025-02-21 18:08:15.173,95397,27487,22202,4,180945,260562
2025-02-21 18:08:15.297,94797,26552,21543,3,178424,256507
2025-02-21 18:08:15.479,94977,26874,21513,3,178921,256959
2025-02-21 18:08:15.482,95803,27372,21829,4,180360,259308
2025-02-21 18:08:15.686,96566,27718,22147,4,181588,261106
2025-02-21 18:08:15.688,95501,26718,21601,4,178546,256517
2025-02-21 18:08:15.864,95137,26939,21725,3,178412,255998
2025-02-21 18:08:15.869,95496,27600,22314,3,181224,260320
2025-02-21 18:08:16.009,95641,27590,22376,4,181861,261391
2025-02-21 18:08:16.266,94737,26406,21376,4,178179,255824
2025-02-21 18:08:16.269,95160,27042,21630,4,179453,257410
2025-02-21 18:08:16.272,96239,27645,22049,4,181392,260649
2025-02-21 18:08:16.407,97034,27810,22161,3,182178,261943
2025-02-21 18:08:16.589,95647,26575,21387,3,178416,256499
2025-02-21 18:08:16.592,95549,26793,21526,4,178645,256537
2025-02-21 18:08:16.738,96055,27477,22020,4,181667,260911
2025-02-21 18:08:16.766,95821,27131,21794,4,181289,260415
2025-02-21 18:08:16.924,95238,26302,21056,4,178056,255719
2025-02-21 18:08:16.967,96090,27114,21467,5,180119,258730
2025-02-21 18:08:17.073,96972,27533,21818,4,181629,261192
2025-02-21 18:08:17.253,97410,27172,21634,4,181147,260725
2025-02-21 18:08:17.258,96082,25882,20743,3,176842,254634
2025-02-21 18:08:17.472,95832,26502,21301,4,177976,256143
2025-02-21 18:08:17.474,94801,26988,21875,3,180321,259264
2025-02-21 18:08:17.650,93857,26392,21442,4,178704,256738
2025-02-21 18:08:17.662,93169,25612,20479,3,175884,252911
2025-02-21 18:08:17.797,93977,26164,20503,3,177561,255829
2025-02-21 18:08:18.068,96388,26702,20747,3,180136,260231
2025-02-21 18:08:18.070,96719,26445,20739,4,179402,259020
2025-02-21 18:08:18.072,95315,25889,20431,4,176543,254747
2025-02-21 18:08:18.217,95715,26544,20859,3,177855,256849
2025-02-21 18:08:18.254,96483,27072,21275,3,180098,260624
2025-02-21 18:08:18.399,96039,26583,21002,4,178570,258485
2025-02-21 18:08:18.546,95150,26093,20594,3,176654,255065
2025-02-21 18:08:18.558,95899,26712,20955,3,178320,257710
2025-02-21 18:08:18.723,96967,27147,21197,3,180264,260665
2025-02-21 18:08:18.757,97015,26575,20821,3,179213,259056
2025-02-21 18:08:18.870,95891,25724,20179,3,176247,254115
2025-02-21 18:08:19.106,96036,26375,20605,3,177475,256053
2025-02-21 18:08:19.108,96095,26594,20728,3,178921,258486
2025-02-21 18:08:19.150,95651,25912,20333,3,177373,256053
2025-02-21 18:08:19.259,94853,25417,19894,4,175605,252816
2025-02-21 18:08:19.435,95536,26159,20262,3,177251,255457
2025-02-21 18:08:19.453,96850,26792,20719,3,179875,259418
2025-02-21 18:08:19.658,96811,26478,20618,3,178891,258398
2025-02-21 18:08:19.661,95507,25568,19985,4,175424,253380
2025-02-21 18:08:19.839,95436,26055,20293,4,176733,255315
2025-02-21 18:08:19.858,95754,26506,20724,3,178882,258922
2025-02-21 18:08:19.982,95002,25947,20389,4,177270,256353
2025-02-21 18:08:20.156,94031,25266,19581,4,174757,252352
2025-02-21 18:08:20.158,94780,26039,19929,4,176901,256169
2025-02-21 18:08:20.305,95960,26494,20351,3,179283,259351
2025-02-21 18:08:20.350,95185,25613,19737,3,177497,256510
2025-02-21 18:08:20.485,94304,24848,19183,3,174693,252120
2025-02-21 18:08:20.626,94154,25632,19824,3,176511,254961
2025-02-21 18:08:20.653,93136,26065,20371,3,178466,257586
2025-02-21 18:08:20.868,92051,25501,19966,4,176831,255066
2025-02-21 18:08:20.870,92987,25311,19506,3,175625,253189
2025-02-21 18:08:21.015,95765,26090,19937,3,178926,258648
2025-02-21 18:08:21.045,97033,26193,20063,4,179683,260395
2025-02-21 18:08:21.194,96127,25415,19576,4,177513,256761
2025-02-21 18:08:21.341,95232,25095,19318,3,175315,253674
2025-02-21 18:08:21.345,95662,26021,20115,5,177896,257559
2025-02-21 18:08:21.517,95733,26466,20648,4,180222,260628
2025-02-21 18:08:21.550,94994,25532,19848,4,177620,256531
2025-02-21 18:08:21.661,94775,25563,19663,5,176921,255579
2025-02-21 18:08:21.873,95803,26212,20164,5,179159,259409
2025-02-21 18:08:21.876,96157,26186,20241,4,178584,259285
2025-02-21 18:08:22.028,94649,25112,19340,4,173979,253017
2025-02-21 18:08:22.041,94774,25525,19513,4,174113,253567
2025-02-21 18:08:22.208,95198,26050,20018,5,177204,257791
2025-02-21 18:08:22.246,95087,26019,20181,3,178356,258872
2025-02-21 18:08:22.357,93998,25088,19323,4,174916,253819
2025-02-21 18:08:22.595,94863,25825,19786,4,175749,255220
2025-02-21 18:08:22.597,96292,26574,20385,4,178879,259835
2025-02-21 18:08:22.638,96822,26576,20376,3,179098,260210
2025-02-21 18:08:22.743,95493,25492,19531,3,175349,254723
2025-02-21 18:08:22.919,96055,25931,19805,4,175711,255460
2025-02-21 18:08:22.938,96345,26546,20324,5,178722,259555
2025-02-21 18:08:23.192,96209,26513,20402,5,179469,260539
2025-02-21 18:08:23.195,95117,25644,19710,4,176166,255717
2025-02-21 18:08:23.412,95329,26118,19874,4,176565,256448
2025-02-21 18:08:23.416,96918,26731,20288,4,179094,260491
2025-02-21 18:08:23.442,97984,27202,20916,4,180733,262587
2025-02-21 18:08:23.589,96483,26341,20369,4,177387,258036
2025-02-21 18:08:23.633,96361,26573,20500,4,176772,257198
2025-02-21 18:08:23.802,96777,27409,21232,3,179840,261989
2025-02-21 18:08:23.834,96972,27543,21433,3,181115,264195
2025-02-21 18:08:23.974,95365,26098,20290,3,177109,258318
2025-02-21 18:08:24.161,95251,26573,20567,4,177227,258463
2025-02-21 18:08:24.164,96486,27432,21146,4,180130,262613
2025-02-21 18:08:24.378,97465,27628,21228,3,181593,264030
2025-02-21 18:08:24.381,95203,26145,20010,4,176831,257477
2025-02-21 18:08:24.588,94313,25964,19767,3,175121,255376
2025-02-21 18:08:24.591,94772,26508,20210,3,177259,258714
2025-02-21 18:08:24.629,95168,26660,20416,4,178550,260788
2025-02-21 18:08:24.815,94203,25591,19522,4,175630,256076
2025-02-21 18:08:24.821,94658,25999,19673,3,175809,256502
2025-02-21 18:08:24.994,96637,26932,20417,3,178472,261510
2025-02-21 18:08:25.022,96724,26887,20573,4,179780,261976
2025-02-21 18:08:25.137,95034,25520,19639,4,175180,255293
2025-02-21 18:08:25.325,94789,25726,19718,4,174740,254799
2025-02-21 18:08:25.328,95139,26482,20269,4,177239,258558
2025-02-21 18:08:25.476,95193,26321,20133,4,178078,259775
2025-02-21 18:08:25.518,96278,23785,17882,3,172863,252774
2025-02-21 18:08:25.657,100166,23165,17411,5,174599,255079
2025-02-21 18:08:25.807,101794,24326,18377,4,179244,261813
2025-02-21 18:08:25.817,101962,25252,19199,3,179953,263986
2025-02-21 18:08:26.050,99426,24463,18647,4,175109,257135
2025-02-21 18:08:26.052,98734,24595,18850,3,173808,255408
2025-02-21 18:08:26.194,99088,25502,19696,3,176266,259241
2025-02-21 18:08:26.222,99308,25721,20012,3,177979,262161
2025-02-21 18:08:26.381,98062,24946,19408,3,175341,257690
2025-02-21 18:08:26.413,97552,25057,19387,3,174586,256354
2025-02-21 18:08:26.598,98856,26124,20169,3,177406,261012
2025-02-21 18:08:26.613,99917,26877,20903,3,179672,264183
2025-02-21 18:08:26.774,98561,26185,20534,3,177181,260625
2025-02-21 18:08:26.818,97157,25427,19854,3,173885,255907
2025-02-21 18:08:26.920,97904,26194,20413,4,175726,258825
2025-02-21 18:08:27.104,98514,26565,20749,4,177524,262058
2025-02-21 18:08:27.117,97755,26071,20443,4,176224,260531
2025-02-21 18:08:27.249,97024,25387,19748,4,173202,256025
2025-02-21 18:08:27.437,97917,25831,19960,3,174491,258169
2025-02-21 18:08:27.440,98882,26378,20482,3,176624,261472
2025-02-21 18:08:27.583,98731,26553,20864,4,178172,262175
2025-02-21 18:08:27.613,97052,25515,20059,4,174050,256159
2025-02-21 18:08:27.817,97333,25995,20326,2,174447,256924
2025-02-21 18:08:27.819,97699,26394,20635,3,176549,260223
2025-02-21 18:08:27.966,97468,26098,20516,4,176719,260359
2025-02-21 18:08:28.013,96871,25136,19630,4,173603,255936
2025-02-21 18:08:28.142,97455,25619,19833,4,174722,257843
2025-02-21 18:08:28.369,99291,26336,20363,3,177153,261970
2025-02-21 18:08:28.371,100180,26664,20820,4,178164,262697
2025-02-21 18:08:28.410,99103,25715,20265,4,174835,258216
2025-02-21 18:08:28.549,99133,26009,20505,4,174871,258387
2025-02-21 18:08:28.692,99043,26566,20901,4,177408,261986
2025-02-21 18:08:28.710,99358,26689,21070,5,179375,264215
2025-02-21 18:08:28.879,98038,25619,20234,4,176162,259556
2025-02-21 18:08:28.909,98068,25814,20255,4,175929,259311
2025-02-21 18:08:29.035,99565,26479,20742,4,179099,263425
2025-02-21 18:08:29.229,100490,26739,21023,3,180233,265145
2025-02-21 18:08:29.232,99011,25663,20375,4,176543,259750
2025-02-21 18:08:29.441,98807,25813,20585,4,175753,258774
2025-02-21 18:08:29.443,98673,26299,20910,4,177762,262171
2025-02-21 18:08:29.615,98516,26136,20849,4,178486,263741
2025-02-21 18:08:29.618,97409,25186,20044,5,175792,259198
2025-02-21 18:08:29.762,96693,25109,19883,4,174829,258483
2025-02-21 18:08:29.809,97448,25327,20040,3,175016,260209
2025-02-21 18:08:29.942,97626,25525,20167,3,176507,261542
2025-02-21 18:08:30.094,95974,24683,19535,4,174118,257638
2025-02-21 18:08:30.102,95587,24764,19500,3,173546,256971
2025-02-21 18:08:30.275,96081,25210,19853,3,175053,259595
2025-02-21 18:08:30.302,96267,25416,20126,4,175908,261605
2025-02-21 18:08:30.422,95060,24813,19593,3,173933,258239
2025-02-21 18:08:30.605,95259,24798,19428,3,173237,257269
2025-02-21 18:08:30.608,96260,25272,19755,3,174698,260500
2025-02-21 18:08:30.755,96735,25701,20230,3,175299,262460
2025-02-21 18:08:30.940,95633,25244,19996,3,172828,258736
2025-02-21 18:08:30.943,95406,25241,19821,4,171232,256948
2025-02-21 18:08:31.087,95974,25779,20184,3,173551,260203
2025-02-21 18:08:31.097,96297,25786,20283,4,174891,262137
2025-02-21 18:08:31.347,95765,25152,19769,4,173117,259424
2025-02-21 18:08:31.350,95701,25142,19587,4,171729,257701
2025-02-21 18:08:31.495,96750,25850,20107,4,174049,261565
2025-02-21 18:08:31.501,97872,25985,20210,4,174352,262900
2025-02-21 18:08:31.744,97163,25265,19740,3,171841,259367
2025-02-21 18:08:31.746,96517,25110,19541,4,170061,257287
2025-02-21 18:08:31.892,96584,25635,19950,4,172019,259965
2025-02-21 18:08:31.895,96634,25865,20225,4,174357,262766
2025-02-21 18:08:32.067,95641,25340,19810,5,173137,260755
2025-02-21 18:08:32.093,94691,24957,19324,4,171540,258457
2025-02-21 18:08:32.218,96042,25745,19990,5,174413,262351
2025-02-21 18:08:32.401,96756,26240,20527,4,176736,264703
2025-02-21 18:08:32.403,95762,25811,20276,3,175082,261832
2025-02-21 18:08:32.546,95084,25492,19792,4,172755,258895
2025-02-21 18:08:32.738,95829,25926,20141,4,174698,261780
2025-02-21 18:08:32.740,96496,26076,20369,3,176635,264445
2025-02-21 18:08:32.951,95922,25458,19825,3,174743,261793
2025-02-21 18:08:32.953,95761,25243,19448,4,172487,258822
2025-02-21 18:08:32.990,96952,26112,20142,4,175038,262553
2025-02-21 18:08:33.124,98178,26431,20422,4,177644,264713
2025-02-21 18:08:33.276,97950,25925,20106,3,176461,263044
2025-02-21 18:08:33.293,96820,25371,19471,3,173374,259116
2025-02-21 18:08:33.535,97681,25974,19922,4,175152,261912
2025-02-21 18:08:33.538,98172,26200,20242,4,177101,264547
2025-02-21 18:08:33.685,97406,25697,19900,4,176345,263259
2025-02-21 18:08:33.688,96760,25286,19466,4,174061,259856
2025-02-21 18:08:33.866,98323,26078,20095,3,176662,263868
2025-02-21 18:08:33.885,100052,26544,20469,4,179566,266435
2025-02-21 18:08:34.016,99835,26406,20502,4,179659,265928
2025-02-21 18:08:34.196,98032,25464,19621,5,175744,260650
2025-02-21 18:08:34.199,98557,25638,19809,4,176192,261911
2025-02-21 18:08:34.347,98981,25859,20124,4,178280,264908
2025-02-21 18:08:34.381,98491,25681,20158,5,178510,264917
2025-02-21 18:08:34.623,97504,25031,19505,3,175276,259914
2025-02-21 18:08:34.625,98095,25757,20034,4,176823,262517
2025-02-21 18:08:34.788,99286,26128,20436,4,179629,266133
2025-02-21 18:08:34.794,100595,26364,20748,3,181083,267844
2025-02-21 18:08:34.986,99021,25211,19713,3,176589,261552
2025-02-21 18:08:34.990,99129,25617,20011,3,176633,262317
2025-02-21 18:08:35.251,99512,26171,20597,4,179411,266286
2025-02-21 18:08:35.254,99462,25820,20371,3,179671,266590
2025-02-21 18:08:35.277,98901,24750,19233,4,175745,260833
2025-02-21 18:08:35.539,100476,25617,19743,3,177943,264508
2025-02-21 18:08:35.543,101926,26052,20207,3,180652,267397
2025-02-21 18:08:35.570,102148,25972,20278,3,181165,267616
2025-02-21 18:08:35.822,100585,24849,19473,3,177109,261688
2025-02-21 18:08:35.824,101333,25416,19996,4,178287,263794
2025-02-21 18:08:35.868,101630,25906,20606,3,180970,267551
2025-02-21 18:08:36.011,100923,25575,20454,5,180848,267137
2025-02-21 18:08:36.166,99907,24928,19699,3,177430,262031
2025-02-21 18:08:36.173,100867,25665,20295,3,179455,265320
2025-02-21 18:08:36.406,102169,26073,20737,3,181696,268779
2025-02-21 18:08:36.409,102434,25866,20568,3,181592,268606
2025-02-21 18:08:36.565,101174,24785,19596,4,177133,262532
2025-02-21 18:08:36.568,101271,25213,19906,4,177355,263448
2025-02-21 18:08:36.743,101511,25618,20406,3,179718,266807
2025-02-21 18:08:36.765,101525,25312,20227,4,179835,266506
2025-02-21 18:08:36.961,100849,24695,19539,3,176548,261975
2025-02-21 18:08:36.968,101377,25409,19991,4,177788,264185
2025-02-21 18:08:37.273,102549,25891,20357,3,179306,267444
2025-02-21 18:08:37.276,102837,26014,20504,4,180891,268323
2025-02-21 18:08:37.279,101258,24963,19752,4,177319,262912
2025-02-21 18:08:37.440,101138,25228,19913,4,177131,262756
2025-02-21 18:08:37.461,101699,25903,20641,4,179806,266918
2025-02-21 18:08:37.644,102195,26173,21024,3,181028,269079
2025-02-21 18:08:37.661,100805,25131,19923,2,177332,263576
2025-02-21 18:08:37.848,101289,25496,20083,4,177546,263781
2025-02-21 18:08:37.866,102883,26326,20771,5,180570,268402
2025-02-21 18:08:38.130,103503,26687,21152,4,182480,270330
2025-02-21 18:08:38.134,102189,26110,20656,4,180539,266847
2025-02-21 18:08:38.157,101208,25954,20349,4,178989,264027
2025-02-21 18:08:38.388,101879,26263,20633,3,180605,266776
2025-02-21 18:08:38.390,102713,26342,20828,2,181750,269450
2025-02-21 18:08:38.585,101274,25591,20011,3,179879,266231
2025-02-21 18:08:38.588,100978,25714,19920,4,178738,264517
2025-02-21 18:08:38.814,102889,26521,20559,4,181535,269060
2025-02-21 18:08:38.817,104082,26900,21028,4,183657,272101
2025-02-21 18:08:38.860,103130,26380,20684,3,182913,270204
2025-02-21 18:08:39.002,101705,25910,20132,4,180053,265965
2025-02-21 18:08:39.158,102846,26702,20908,3,182800,270178
2025-02-21 18:08:39.161,103295,26869,21205,4,184182,272760
2025-02-21 18:08:39.353,102441,26284,20698,5,183153,270688
2025-02-21 18:08:39.356,101781,26045,20273,4,181477,267679
2025-02-21 18:08:39.512,103199,26779,20859,4,183798,271796
2025-02-21 18:08:39.557,104362,27124,21234,4,185889,274520
2025-02-21 18:08:39.762,103649,26675,20922,4,184348,272467
2025-02-21 18:08:39.764,101986,25923,20143,3,180727,267282
2025-02-21 18:08:39.909,102660,26301,20553,4,181928,269362
2025-02-21 18:08:39.949,103303,26513,20895,4,183530,272351
2025-02-21 18:08:40.094,102156,25915,20265,4,181632,268907
2025-02-21 18:08:40.254,101391,25732,19800,3,179496,265661
2025-02-21 18:08:40.257,102432,26323,20207,4,181562,269077
2025-02-21 18:08:40.508,102221,26274,20399,4,182147,270890
2025-02-21 18:08:40.511,100163,25687,20074,4,180091,267729
2025-02-21 18:08:40.553,98900,25383,19650,5,177773,264268
2025-02-21 18:08:40.657,99444,25983,20124,3,179700,266962
2025-02-21 18:08:40.847,99809,26199,20355,3,181675,269787
2025-02-21 18:08:40.853,99292,25580,19812,4,180143,267458
2025-02-21 18:08:40.997,99210,25208,19247,3,177412,263673
2025-02-21 18:08:41.045,100649,26047,19884,4,180227,267775
2025-02-21 18:08:41.179,102092,26337,20118,3,182700,270439
2025-02-21 18:08:41.336,101691,25935,19906,3,181303,268656
2025-02-21 18:08:41.349,100335,25214,19222,3,177931,263715
2025-02-21 18:08:41.579,101658,25971,19809,3,180225,267079
2025-02-21 18:08:41.582,102018,26225,20159,4,182525,270651
2025-02-21 18:08:41.728,101218,25822,19880,3,181407,268663
2025-02-21 18:08:41.749,100569,25380,19233,3,178328,264346
2025-02-21 18:08:41.915,101766,26034,19726,3,180382,267789
2025-02-21 18:08:41.954,103649,26607,20212,3,182637,271356
2025-02-21 18:08:42.122,104072,26849,20482,4,183857,272276
2025-02-21 18:08:42.142,102550,26105,19738,4,180576,267333
2025-02-21 18:08:42.305,103188,26550,20172,4,182285,269481
2025-02-21 18:08:42.345,103310,26522,20407,3,183827,272597
2025-02-21 18:08:42.451,103089,26235,20272,3,183403,272386
2025-02-21 18:08:42.643,102094,25599,19454,4,180525,267589
2025-02-21 18:08:42.646,102877,26184,19874,4,181801,269834
2025-02-21 18:08:42.792,103998,26509,20264,4,184064,272826
2025-02-21 18:08:42.837,104234,26453,20424,3,184892,273395
2025-02-21 18:08:42.980,102513,25772,19768,4,181654,268321
2025-02-21 18:08:43.131,102760,26048,19902,4,181851,268448
2025-02-21 18:08:43.142,103227,26358,20307,4,183838,271754
2025-02-21 18:08:43.375,103129,26305,20394,3,184170,272628
2025-02-21 18:08:43.377,101915,25531,19562,4,181454,268090
2025-02-21 18:08:43.526,102265,25896,19770,3,181579,268457
2025-02-21 18:08:43.543,103221,26297,20195,3,183347,271914
2025-02-21 18:08:43.728,103300,26115,20098,4,183957,272332
2025-02-21 18:08:43.746,101485,24093,18309,3,177935,264353
2025-02-21 18:08:43.958,100916,23703,18088,3,175920,261545
2025-02-21 18:08:43.960,101424,24517,19035,3,178791,265550
2025-02-21 18:08:44.140,101763,24983,19626,3,181206,268632
2025-02-21 18:08:44.143,101090,24640,19203,4,179434,265660
2025-02-21 18:08:44.285,100944,24744,19074,5,178318,264255
2025-02-21 18:08:44.468,102131,25151,19461,4,180633,267932
2025-02-21 18:08:44.470,103193,25477,19850,5,182537,270462
2025-02-21 18:08:44.621,102591,25204,19656,4,181160,267987
2025-02-21 18:08:44.630,101597,24940,19262,3,178687,264814
2025-02-21 18:08:44.849,102256,25436,19725,3,180669,267841
2025-02-21 18:08:44.851,102421,25443,19916,4,182343,269890
2025-02-21 18:08:45.057,102014,25109,19593,4,181004,267735
2025-02-21 18:08:45.060,101728,25081,19332,4,179415,265695
2025-02-21 18:08:45.229,102585,25569,19769,3,181300,269037
2025-02-21 18:08:45.232,103412,25845,20087,4,182818,271493
2025-02-21 18:08:45.376,102922,25493,19936,3,181822,269812
2025-02-21 18:08:45.649,101818,25060,19431,3,179405,266365
2025-02-21 18:08:45.652,102275,25445,19823,3,180961,268824
2025-02-21 18:08:45.654,102495,25646,20201,4,182490,271397
2025-02-21 18:08:45.793,102119,25532,20092,3,182214,270548
2025-02-21 18:08:45.829,101770,25230,19636,3,180421,267710
2025-02-21 18:08:46.006,102595,25647,20025,4,182097,270751
2025-02-21 18:08:46.030,103497,25864,20325,4,183480,272843
2025-02-21 18:08:46.163,103948,26031,20556,3,184163,273633
2025-02-21 18:08:46.357,102384,25536,19943,3,181144,269312
2025-02-21 18:08:46.361,102930,25779,20263,4,182307,271025
2025-02-21 18:08:46.518,103732,25986,20698,4,184329,273823
2025-02-21 18:08:46.533,103965,26070,20823,4,185159,274675
2025-02-21 18:08:46.796,102932,25435,20008,4,181651,269813
2025-02-21 18:08:46.799,103347,26021,20538,4,183417,272698
2025-02-21 18:08:46.826,103964,26179,20787,3,184992,274608
2025-02-21 18:08:46.945,103956,26047,20787,4,184848,274595
2025-02-21 18:08:47.132,102257,25301,19935,4,181089,269157
2025-02-21 18:08:47.134,102917,25721,20228,6,182549,271298
2025-02-21 18:08:47.292,103595,25881,20427,3,184026,273723
2025-02-21 18:08:47.330,103133,25479,20105,4,183066,272623
2025-02-21 18:08:47.476,102307,24927,19371,4,180084,267981
2025-02-21 18:08:47.518,103565,25522,19818,4,181955,271252
2025-02-21 18:08:47.622,104164,25596,20037,3,183426,272781
2025-02-21 18:08:47.802,103947,25507,20050,3,183671,272320
2025-02-21 18:08:47.821,102300,24788,19257,4,179978,267102
2025-02-21 18:08:47.952,102743,25048,19461,4,180654,268507
2025-02-21 18:08:48.132,103090,25217,19786,3,182554,271184
2025-02-21 18:08:48.135,103101,25192,19840,4,182834,271530
2025-02-21 18:08:48.286,102199,24787,19230,3,180014,267464
2025-02-21 18:08:48.325,102766,25152,19437,4,180572,268908
2025-02-21 18:08:48.530,103551,25150,19621,4,182158,270777
2025-02-21 18:08:48.533,103980,25377,19980,3,183572,272202
2025-02-21 18:08:48.673,102144,24825,19234,4,180191,267435
2025-02-21 18:08:48.718,102300,24993,19323,3,180315,267725
2025-02-21 18:08:48.859,102653,25170,19641,4,181757,270542
2025-02-21 18:08:49.082,102592,24940,19576,5,182009,271027
2025-02-21 18:08:49.085,101860,24508,18908,3,179755,267167
2025-02-21 18:08:49.122,102478,24932,19141,4,180772,268825
2025-02-21 18:08:49.257,103426,25091,19397,3,182328,271025
2025-02-21 18:08:49.404,103920,25249,19637,4,183019,272325
2025-02-21 18:08:49.414,102906,24662,19081,3,181018,269162
2025-02-21 18:08:49.581,102665,24610,19003,4,180354,268175
2025-02-21 18:08:49.614,103572,25100,19735,4,182861,272004
2025-02-21 18:08:49.732,103837,25216,20017,4,183641,273393
2025-02-21 18:08:49.918,102871,24699,19264,4,181080,269700
2025-02-21 18:08:49.921,102720,24590,18979,3,180503,268895
2025-02-21 18:08:50.064,103787,24850,19326,2,182716,271690
2025-02-21 18:08:50.310,104519,25210,19737,4,184676,273989
2025-02-21 18:08:50.313,103610,24862,19422,3,182997,271105
2025-02-21 18:08:50.315,103031,24715,19084,4,181187,268501
2025-02-21 18:08:50.466,103815,25001,19443,4,183414,271816
2025-02-21 18:08:50.502,103858,24861,19557,5,183966,273054
2025-02-21 18:08:50.731,102791,24395,18992,4,181789,269751
2025-02-21 18:08:50.733,102266,24361,18685,3,180251,267628
2025-02-21 18:08:50.874,103291,24774,19122,3,182359,270811
2025-02-21 18:08:50.902,103619,24985,19435,4,183859,272337
2025-02-21 18:08:51.060,102940,24602,19139,4,182615,270530
2025-02-21 18:08:51.107,101978,24231,18599,4,180092,266856
2025-02-21 18:08:51.209,102359,24455,18829,4,181467,269182
2025-02-21 18:08:51.394,102598,24539,19056,4,182341,271073
2025-02-21 18:08:51.398,101800,24090,18529,4,180602,268486
2025-02-21 18:08:51.541,101358,23728,18071,4,178443,265372
2025-02-21 18:08:51.738,102030,24042,18364,3,179744,267902
2025-02-21 18:08:51.741,102809,24247,18658,4,181361,269828
2025-02-21 18:08:51.976,102805,24123,18588,5,180601,268400
2025-02-21 18:08:51.979,102027,23876,18176,4,178013,264701
2025-02-21 18:08:52.002,102296,24052,18370,4,179287,266693
2025-02-21 18:08:52.151,102404,24026,18562,4,180627,269002
2025-02-21 18:08:52.190,102406,23961,18518,4,180073,268239
2025-02-21 18:08:52.294,102826,24176,18534,4,179110,266216
2025-02-21 18:08:52.553,103668,24724,19130,4,181323,269929
2025-02-21 18:08:52.555,103758,25003,19509,4,182785,271432
2025-02-21 18:08:52.594,103453,24942,19548,4,182828,271636
2025-02-21 18:08:52.701,102199,24350,18704,5,179514,267173
2025-02-21 18:08:52.887,102788,24520,18914,4,180816,269107
2025-02-21 18:08:52.898,102660,24466,19091,4,181431,270572
2025-02-21 18:08:53.036,102423,24469,19061,3,181191,270383
2025-02-21 18:08:53.220,101644,23993,18429,4,178925,266861
2025-02-21 18:08:53.222,102005,24009,18426,3,179136,267572
2025-02-21 18:08:53.379,102775,24071,18644,5,180223,269163
2025-02-21 18:08:53.390,103647,24561,19149,4,182582,271384
2025-02-21 18:08:53.563,102811,24487,18905,3,181286,269169
2025-02-21 18:08:53.590,102547,24301,18562,4,180356,267912
2025-02-21 18:08:53.769,103270,24220,18715,4,182460,271105
2025-02-21 18:08:53.794,103475,24175,18828,3,182917,271798
2025-02-21 18:08:53.952,102777,23967,18466,4,180736,268467
2025-02-21 18:08:53.994,102698,24203,18536,4,180409,268253
2025-02-21 18:08:54.168,103550,24385,18812,4,182043,270708
2025-02-21 18:08:54.186,104166,24385,19002,4,182625,271893
2025-02-21 18:08:54.349,103546,24174,18841,3,180783,269348
2025-02-21 18:08:54.386,102628,24062,18557,3,179011,266698
2025-02-21 18:08:54.497,103014,24311,18857,4,180807,269404
2025-02-21 18:08:54.682,103239,24383,19078,3,181474,271139
2025-02-21 18:08:54.690,102783,24267,18865,4,180600,269434
2025-02-21 18:08:54.845,102425,24061,18506,4,178986,266833
2025-02-21 18:08:54.879,103103,24239,18707,3,180047,269226
2025-02-21 18:08:55.048,104190,24539,19080,3,182194,271421
2025-02-21 18:08:55.082,104682,24904,19455,4,182928,272040
2025-02-21 18:08:55.192,103205,24482,18888,5,179333,267279
2025-02-21 18:08:55.448,103204,24651,19194,4,180385,269158
2025-02-21 18:08:55.451,103245,24656,19487,4,182199,271700
2025-02-21 18:08:55.482,103223,24608,19363,4,182131,271451
2025-02-21 18:08:55.586,102748,24193,18604,4,179004,267208
2025-02-21 18:08:55.763,103136,24469,18686,3,179365,268516
2025-02-21 18:08:55.785,104017,24639,18945,3,181260,270675
2025-02-21 18:08:55.917,104542,24739,19168,4,182328,271446
2025-02-21 18:08:56.098,103477,24242,18760,3,179584,267498
2025-02-21 18:08:56.101,103213,24267,18687,4,178771,266578
2025-02-21 18:08:56.246,103743,24547,19057,3,180896,269918
2025-02-21 18:08:56.278,103568,24604,19225,3,181416,270738
2025-02-21 18:08:56.434,102789,24255,18740,5,179334,267219
2025-02-21 18:08:56.483,102657,24378,18697,5,179084,266876
2025-02-21 18:08:56.583,103410,24579,19002,4,180368,269450
2025-02-21 18:08:56.765,103849,24799,19229,4,181510,270945
2025-02-21 18:08:56.775,102190,24179,18602,5,178319,266340
2025-02-21 18:08:56.912,101559,24155,18383,4,176731,264456
2025-02-21 18:08:57.147,101877,24509,18704,4,178769,267437
2025-02-21 18:08:57.150,102112,24463,18800,5,180216,269311
2025-02-21 18:08:57.174,101681,23745,18029,5,177968,265841
2025-02-21 18:08:57.295,101494,23647,17723,4,176383,263725
2025-02-21 18:08:57.483,102590,24203,18248,4,178592,267287
2025-02-21 18:08:57.486,103403,24597,18756,4,180627,269783
2025-02-21 18:08:57.699,102750,24438,18668,3,179131,267703
2025-02-21 18:08:57.702,101700,24104,18215,4,176782,263886
2025-02-21 18:08:57.878,101987,24363,18480,3,178172,266125
2025-02-21 18:08:57.880,102243,24475,18731,4,180000,268939
2025-02-21 18:08:58.023,102136,24391,18652,4,179697,268346
2025-02-21 18:08:58.070,101747,24266,18281,3,177928,265487
2025-02-21 18:08:58.207,102346,24554,18505,3,178991,267602
2025-02-21 18:08:58.355,103252,24703,18728,5,180301,269883
2025-02-21 18:08:58.375,103526,24614,18737,4,180789,269838
2025-02-21 18:08:58.534,102720,23991,18078,4,177584,265264
2025-02-21 18:08:58.575,102988,24039,18137,4,177430,265454
2025-02-21 18:08:58.683,103708,24310,18435,4,179787,268604
2025-02-21 18:08:58.936,104026,24391,18576,3,180617,269547
2025-02-21 18:08:58.939,103526,23922,18107,3,178324,266060
2025-02-21 18:08:58.967,103478,24082,18170,4,178712,266533
2025-02-21 18:08:59.078,104542,24613,18679,4,181269,270544
2025-02-21 18:08:59.254,105054,24787,18934,4,182530,272400
2025-02-21 18:08:59.270,103774,24295,18609,3,179179,267749
2025-02-21 18:08:59.480,103300,24381,18600,4,177655,266058
2025-02-21 18:08:59.482,103615,24709,18929,4,179753,269046
2025-02-21 18:08:59.651,103997,24666,18965,2,181005,270722
2025-02-21 18:08:59.662,103297,24228,18623,3,179512,268186
2025-02-21 18:08:59.799,102844,24190,18471,3,178078,266237
2025-02-21 18:08:59.987,103506,24479,18763,4,179834,269016
2025-02-21 18:08:59.990,104188,24606,18936,4,182039,271453
2025-02-21 18:09:00.132,103442,24210,18626,5,179596,268087
2025-02-21 18:09:00.167,102806,24127,18390,4,177293,265151
2025-02-21 18:09:00.316,103266,24211,18521,3,178864,267669
2025-02-21 18:09:00.464,104406,24005,18435,3,180609,269992
2025-02-21 18:09:00.467,104143,23750,18263,3,179549,268330
2025-02-21 18:09:00.703,103517,23704,18112,4,177482,265324
2025-02-21 18:09:00.706,104158,24235,18564,4,179231,268129
2025-02-21 18:09:00.849,105110,24617,18923,4,181193,270903
2025-02-21 18:09:00.862,104529,24441,18956,4,180746,269611
2025-02-21 18:09:01.036,103089,23864,18516,4,177201,264490
2025-02-21 18:09:01.062,103419,24141,18758,4,178113,265997
2025-02-21 18:09:01.255,103986,24295,19027,3,180527,269405
2025-02-21 18:09:01.262,104225,24299,19060,4,180702,269779
2025-02-21 18:09:01.436,103456,24029,18746,4,178179,265822
2025-02-21 18:09:01.455,103515,24116,18863,4,178769,266796
2025-02-21 18:09:01.578,104488,24325,19153,3,180229,269531
2025-02-21 18:09:01.764,104823,24375,19266,4,180755,269885
2025-02-21 18:09:01.767,103747,24024,18915,4,177964,265826
2025-02-21 18:09:01.911,103804,24399,19158,3,178200,266320
2025-02-21 18:09:01.959,104094,24627,19528,4,180548,269765
2025-02-21 18:09:02.094,104176,24495,19603,3,181053,270689
2025-02-21 18:09:02.241,103636,24124,19170,4,179014,267617
2025-02-21 18:09:02.262,103499,24222,19108,4,178321,266687
2025-02-21 18:09:02.497,104459,24496,19388,5,180124,269568
2025-02-21 18:09:02.500,105173,24727,19648,4,181493,271182
2025-02-21 18:09:02.645,104173,24191,19280,4,178919,267695
2025-02-21 18:09:02.655,103462,23940,19011,4,177322,265679
2025-02-21 18:09:02.898,103854,24156,19232,4,178831,268181
2025-02-21 18:09:02.900,104351,24230,19369,4,179680,269998
2025-02-21 18:09:03.039,103868,24090,19179,4,178647,268299
2025-02-21 18:09:03.058,103317,24092,19025,4,177455,266419
2025-02-21 18:09:03.217,103924,24097,19171,3,178810,268619
2025-02-21 18:09:03.247,104762,24106,19291,3,180661,270112
2025-02-21 18:09:03.365,104364,23932,19162,3,179157,268153
2025-02-21 18:09:03.554,103560,23754,18902,3,177379,265516
2025-02-21 18:09:03.557,104053,24104,19238,4,178829,268043
2025-02-21 18:09:03.705,104704,24144,19303,3,180194,270490
2025-02-21 18:09:03.750,104509,23767,18932,3,179170,268942
2025-02-21 18:09:03.898,103864,23519,18620,4,177264,265854
2025-02-21 18:09:04.109,104576,23964,19001,4,178432,268106
2025-02-21 18:09:04.111,105698,24351,19413,4,180403,270558
2025-02-21 18:09:04.143,105561,24354,19433,4,179767,269964
2025-02-21 18:09:04.286,104060,23925,18978,3,176088,265258
2025-02-21 18:09:04.427,104299,23897,19075,3,176230,265801
2025-02-21 18:09:04.447,104813,24077,19379,4,178196,268475
2025-02-21 18:09:04.606,105056,24239,19617,5,179337,269677
2025-02-21 18:09:04.647,104819,24249,19524,4,177894,267303
2025-02-21 18:09:04.762,105278,24750,19819,4,179082,269073
2025-02-21 18:09:04.942,105860,24750,19895,3,180468,270732
2025-02-21 18:09:04.944,106289,24834,20097,4,181222,272268
2025-02-21 18:09:05.127,105023,24429,19719,4,178468,268695
2025-02-21 18:09:05.143,104805,24539,19785,4,177601,267788
2025-02-21 18:09:05.313,105332,24759,20086,4,179232,270416
2025-02-21 18:09:05.342,105918,24820,20207,4,180311,272104
2025-02-21 18:09:05.462,105061,24450,19881,3,179489,270487
2025-02-21 18:09:05.641,104560,24346,19692,5,177823,268577
2025-02-21 18:09:05.644,105692,24620,19917,3,179651,270805
2025-02-21 18:09:05.858,106858,24952,20257,4,182667,273693
2025-02-21 18:09:05.861,106900,24992,20306,4,183140,273574
2025-02-21 18:09:06.040,105199,24422,19845,4,179942,269087
2025-02-21 18:09:06.043,105763,24620,20184,3,180551,270438
2025-02-21 18:09:06.182,106250,24760,20494,4,181659,272398
2025-02-21 18:09:06.231,106462,24949,20668,3,182568,273420
2025-02-21 18:09:06.442,105384,24752,20262,4,181018,270821
2025-02-21 18:09:06.444,106189,24799,20375,4,181713,272280
2025-02-21 18:09:06.583,107009,24868,20544,3,182897,274019
2025-02-21 18:09:06.761,107243,25095,20753,3,184130,274838
2025-02-21 18:09:06.764,105467,24674,20299,3,181777,271006
2025-02-21 18:09:06.916,106234,25005,20672,4,182575,272535
2025-02-21 18:09:06.923,106724,24835,20832,4,183251,274079
2025-02-21 18:09:07.100,106724,24895,21085,4,183729,274589
2025-02-21 18:09:07.127,105335,24729,20641,4,181941,271611
2025-02-21 18:09:07.249,105862,24959,20759,3,182220,272470
2025-02-21 18:09:07.490,106810,25092,20979,4,183304,274353
2025-02-21 18:09:07.492,107325,25202,21170,4,184547,275732
2025-02-21 18:09:07.527,105698,24678,20522,4,182652,272473
2025-02-21 18:09:07.651,105902,24899,20707,3,182586,272625
2025-02-21 18:09:07.855,106402,24992,21003,4,183704,274565
2025-02-21 18:09:07.857,106820,25132,21256,4,184227,275464
2025-02-21 18:09:08.067,105385,24758,20690,4,182754,272820
2025-02-21 18:09:08.070,105175,24776,20555,4,181919,271848
2025-02-21 18:09:08.243,105942,24830,20652,3,182432,273201
2025-02-21 18:09:08.245,106709,24906,20832,4,183157,274691
2025-02-21 18:09:08.400,106233,25021,20696,4,183630,274518
2025-02-21 18:09:08.423,105475,24920,20504,3,183053,273194
2025-02-21 18:09:08.578,106399,25072,20931,3,184635,275659
2025-02-21 18:09:08.615,106890,25058,21116,4,184669,276284
2025-02-21 18:09:08.728,106336,24865,20763,4,183521,274739
2025-02-21 18:09:08.915,105280,24598,20193,4,180809,271299
2025-02-21 18:09:08.918,106366,24861,20406,3,182316,273567
2025-02-21 18:09:09.064,107305,24990,20739,3,183758,275556
2025-02-21 18:09:09.303,106925,25057,20817,2,183972,275212
2025-02-21 18:09:09.306,104843,24596,20126,4,180786,270705
2025-02-21 18:09:09.318,105388,24951,20603,3,181837,272390
2025-02-21 18:09:09.446,106063,25049,20967,3,183351,274579
2025-02-21 18:09:09.630,105899,25105,21093,4,184127,275088
2025-02-21 18:09:09.633,104598,24918,20467,4,182244,272433
2025-02-21 18:09:09.857,105394,25133,20636,4,182547,273525
2025-02-21 18:09:09.859,106456,25291,20897,3,183563,275390
2025-02-21 18:09:10.033,106667,25331,20913,3,184325,275841
2025-02-21 18:09:10.035,104645,24727,20176,3,181562,271517
2025-02-21 18:09:10.178,105015,24992,20470,3,181580,272117
2025-02-21 18:09:10.215,105796,25211,20939,4,183117,274526
2025-02-21 18:09:10.367,105876,25442,21222,3,184161,275657
2025-02-21 18:09:10.509,104562,25124,20571,3,181919,272332
2025-02-21 18:09:10.518,104598,25189,20561,2,181676,272352
2025-02-21 18:09:10.691,105689,25267,20679,3,182322,273918
2025-02-21 18:09:10.711,106456,25481,20940,4,183649,275562
2025-02-21 18:09:10.842,105262,25305,20568,3,182252,273106
2025-02-21 18:09:11.089,104566,25118,20323,3,180572,270998
2025-02-21 18:09:11.091,104913,25157,20639,4,181301,272543
2025-02-21 18:09:11.111,105307,25189,20824,3,182145,273951
2025-02-21 18:09:11.243,104738,25153,20568,4,181786,272895
2025-02-21 18:09:11.481,104230,25306,20420,3,180932,271555
2025-02-21 18:09:11.483,104891,25273,20444,4,181249,272601
2025-02-21 18:09:11.506,105901,25312,20638,3,182350,274333
2025-02-21 18:09:11.630,105336,25380,20615,3,182236,273506
2025-02-21 18:09:11.816,103850,25190,20257,3,179865,270065
2025-02-21 18:09:11.819,104421,25520,20721,2,180789,271746
2025-02-21 18:09:11.965,104816,25473,20895,4,181637,273358
2025-02-21 18:09:12.007,104790,25469,20942,3,181864,273337
2025-02-21 18:09:12.145,103661,25214,20309,4,179986,270246
2025-02-21 18:09:12.301,104439,25560,20584,4,180771,272020
2025-02-21 18:09:12.311,105437,25609,20665,4,181702,273838
2025-02-21 18:09:12.479,105834,25633,20720,4,182504,274625
2025-02-21 18:09:12.503,104722,25193,20192,4,180709,271646
2025-02-21 18:09:12.691,104912,25397,20347,4,180649,272074
2025-02-21 18:09:12.703,105582,25459,20652,4,182148,274390
2025-02-21 18:09:12.877,105040,25342,20619,4,182098,273933
2025-02-21 18:09:12.903,103983,25090,20078,4,180569,270989
2025-02-21 18:09:13.030,104045,25340,20213,4,180527,271272
2025-02-21 18:09:13.211,105160,25429,20433,3,181367,273227
2025-02-21 18:09:13.214,105763,25632,20728,4,182625,274663
2025-02-21 18:09:13.381,104202,25281,20197,5,180692,271460
2025-02-21 18:09:13.400,103560,25105,19998,4,179166,269463
2025-02-21 18:09:13.642,104158,25279,20380,4,180153,271553
2025-02-21 18:09:13.648,104612,25381,20625,4,181292,273260
2025-02-21 18:09:13.824,103325,25122,20134,5,180011,271005
2025-02-21 18:09:13.827,102742,25064,19862,4,178766,269181
2025-02-21 18:09:14.033,103711,25134,20046,3,179906,271238
2025-02-21 18:09:14.037,104394,25204,20203,3,180697,272697
2025-02-21 18:09:14.205,103371,25098,20036,4,179758,271080
2025-02-21 18:09:14.208,102222,24860,19612,4,177308,267613
2025-02-21 18:09:14.590,102775,24928,19790,4,177758,268509
2025-02-21 18:09:14.592,103462,24916,19989,4,179153,270661
2025-02-21 18:09:14.596,103068,24884,19889,4,179149,270283
2025-02-21 18:09:14.598,102077,24746,19414,4,177384,267360
2025-02-21 18:09:14.757,102908,25038,19640,4,178166,269123
2025-02-21 18:09:14.788,103904,25035,19760,4,179521,270828
2025-02-21 18:09:15.051,104060,25008,19867,4,180026,271391
2025-02-21 18:09:15.053,102253,24550,19259,3,177377,267295
2025-02-21 18:09:15.088,102539,24786,19490,4,177415,267562
2025-02-21 18:09:15.245,103119,24972,19825,4,178870,269935
2025-02-21 18:09:15.279,103210,24934,19887,4,179340,270516
2025-02-21 18:09:15.429,101718,24553,19336,4,177522,267497
2025-02-21 18:09:15.579,101715,24793,19447,3,177339,267470
2025-02-21 18:09:15.582,102713,24988,19709,4,178563,269493
2025-02-21 18:09:15.765,103635,25213,19954,4,179610,271119
2025-02-21 18:09:15.784,102378,24772,19446,3,178162,268565
2025-02-21 18:09:15.922,101591,24663,19281,3,176665,266620
2025-02-21 18:09:16.108,102126,24929,19663,3,177820,268605
2025-02-21 18:09:16.110,102769,25152,20018,4,179566,270838
2025-02-21 18:09:16.367,101660,24864,19587,5,178353,268713
2025-02-21 18:09:16.370,100873,24668,19230,4,176778,266581
2025-02-21 18:09:16.379,101892,24861,19467,4,177762,268298
2025-02-21 18:09:16.568,102853,25052,19718,3,179068,270070
2025-02-21 18:09:16.580,102577,25075,19666,4,179185,269627
2025-02-21 18:09:16.824,100853,24490,18938,4,176315,265416
2025-02-21 18:09:16.830,101587,24639,19262,3,177096,266980
2025-02-21 18:09:17.118,102349,24768,19568,4,178593,269236
2025-02-21 18:09:17.122,102198,24865,19669,4,178981,269449
2025-02-21 18:09:17.126,100949,24688,19216,4,177068,266517
2025-02-21 18:09:17.299,101605,24938,19465,5,177961,268098
2025-02-21 18:09:17.301,102390,24989,19646,4,179056,269670
2025-02-21 18:09:17.497,102514,25104,19795,4,179411,269983
2025-02-21 18:09:17.500,100930,24746,19154,4,177274,266689
2025-02-21 18:09:17.661,101543,24948,19370,3,177244,267071
2025-02-21 18:09:17.675,102246,24906,19581,5,178595,269286
2025-02-21 18:09:17.934,102307,24788,19577,4,179054,269905
2025-02-21 18:09:17.937,101243,24508,19018,4,177145,266779
2025-02-21 18:09:17.980,101634,24642,19108,4,176959,266999
2025-02-21 18:09:18.082,103095,24699,19331,3,177989,268679
2025-02-21 18:09:18.268,103478,24678,19494,3,178449,269541
2025-02-21 18:09:18.271,102332,24332,19002,4,176445,266241
2025-02-21 18:09:18.505,102207,24514,19221,4,175854,265805
2025-02-21 18:09:18.508,102798,24814,19631,4,177293,268223
2025-02-21 18:09:18.681,103133,24834,19816,5,177965,269443
2025-02-21 18:09:18.684,101803,24506,19389,4,176783,267175
2025-02-21 18:09:18.842,101617,24779,19516,3,176575,267036
2025-02-21 18:09:18.876,102490,24951,19739,4,177426,268497
2025-02-21 18:09:19.027,103196,25109,19960,5,178497,269857
2025-02-21 18:09:19.068,102175,24833,19558,3,177873,268287
2025-02-21 18:09:19.182,101508,24636,19278,3,176028,266147
2025-02-21 18:09:19.370,102174,24886,19628,4,177146,268210
2025-02-21 18:09:19.372,102544,25042,19984,4,178461,269862
2025-02-21 18:09:19.598,101716,24921,19739,2,178107,268962
2025-02-21 18:09:19.601,100995,24615,19217,4,176288,266451
2025-02-21 18:09:19.793,102481,24949,19603,5,177736,268879
2025-02-21 18:09:19.796,103567,25102,19964,3,178848,270489
2025-02-21 18:09:19.945,102889,25142,20040,3,179129,269880
2025-02-21 18:09:19.972,100844,24636,19345,4,175887,265498
2025-02-21 18:09:20.218,101314,24711,19610,3,176220,266565
2025-02-21 18:09:20.221,102012,24791,19912,4,177776,268714
2025-02-21 18:09:20.264,101434,24805,19872,5,177981,268475
2025-02-21 18:09:20.367,100237,24647,19331,4,175693,265282
2025-02-21 18:09:20.554,100961,24784,19485,2,176273,266672
2025-02-21 18:09:20.568,102554,24757,19625,4,177445,268497
2025-02-21 18:09:20.701,102243,24746,19569,5,178103,268745
2025-02-21 18:09:20.892,99103,23714,18213,4,173433,262047
2025-02-21 18:09:20.895,99583,23716,18246,4,172799,261726
2025-02-21 18:09:21.042,100814,23947,18732,3,175166,265142
2025-02-21 18:09:21.060,100610,23845,18754,4,175322,265351
2025-02-21 18:09:21.289,99136,23615,18313,4,172921,261502
2025-02-21 18:09:21.291,99534,24059,18641,4,173427,262553
2025-02-21 18:09:21.435,101624,24455,19027,4,175769,266109
2025-02-21 18:09:21.464,102613,24517,19245,3,177178,268086
2025-02-21 18:09:21.623,100860,24044,18726,4,174526,263973
2025-02-21 18:09:21.663,100580,24158,18818,4,173486,262893
2025-02-21 18:09:21.799,101271,24484,19238,4,175189,265626
2025-02-21 18:09:22.000,102076,24468,19398,3,176728,267446
2025-02-21 18:09:22.003,100268,23889,18830,3,174507,263870
2025-02-21 18:09:22.154,99931,23953,18741,4,173243,262316
2025-02-21 18:09:22.156,101773,24385,19143,4,174877,264957
2025-02-21 18:09:22.337,103050,24823,19558,3,177141,268005
2025-02-21 18:09:22.359,102160,24362,19205,4,176188,266061
2025-02-21 18:09:22.489,100698,23838,18647,4,173277,261902
2025-02-21 18:09:22.676,101508,24224,19080,4,174578,264341
2025-02-21 18:09:22.678,102171,24428,19407,5,176272,266951
2025-02-21 18:09:22.828,101220,24200,19198,3,175588,265640
2025-02-21 18:09:22.852,99989,23800,18647,4,173222,262034
2025-02-21 18:09:23.078,101160,24160,18919,4,174179,263856
2025-02-21 18:09:23.081,102396,24422,19187,3,175391,266071
2025-02-21 18:09:23.234,101843,24432,19228,3,175610,265836
2025-02-21 18:09:23.256,99977,23884,18584,2,172536,261287
2025-02-21 18:09:23.427,100622,24036,18756,3,172923,262168
2025-02-21 18:09:23.456,101585,24293,19079,4,175053,265293
2025-02-21 18:09:23.642,101485,24464,19297,4,176082,266214
2025-02-21 18:09:23.648,100127,24121,18747,3,173715,262392
2025-02-21 18:09:23.820,100752,24317,18977,4,174315,263488
2025-02-21 18:09:23.848,102212,24450,19157,4,175378,265599
2025-02-21 18:09:23.971,103021,24610,19298,3,177083,267726
2025-02-21 18:09:24.153,101323,24006,18713,3,174443,263482
2025-02-21 18:09:24.156,101094,24045,18734,3,173439,262210
2025-02-21 18:09:24.301,101939,24387,19177,4,175564,265450
2025-02-21 18:09:24.486,102552,24782,19819,4,177507,267999
2025-02-21 18:09:24.488,101032,24554,19570,4,176363,265776
2025-02-21 18:09:24.640,100667,24504,19276,4,174965,263841
2025-02-21 18:09:24.644,102662,24919,19663,4,176630,266726
2025-02-21 18:09:24.873,104121,25110,19915,3,178678,269627
2025-02-21 18:09:24.876,103329,24671,19525,5,177392,267641
2025-02-21 18:09:25.020,101636,24118,18906,4,173915,262530
2025-02-21 18:09:25.048,102326,24820,19575,5,175783,265406
2025-02-21 18:09:25.207,102726,24896,19840,3,177383,268091
2025-02-21 18:09:25.247,102163,24536,19555,3,176444,266744
2025-02-21 18:09:25.464,101411,24299,19098,4,173908,262839
2025-02-21 18:09:25.466,102270,25090,19834,4,175795,265541
2025-02-21 18:09:25.641,103401,25436,20232,4,177821,268591
2025-02-21 18:09:25.644,103334,25058,19947,4,177597,268116
2025-02-21 18:09:25.791,102008,24211,18991,5,173746,262461
2025-02-21 18:09:25.974,102355,24739,19368,4,174602,263550
2025-02-21 18:09:25.977,102783,25190,19901,4,176932,267274
2025-02-21 18:09:26.121,102341,24842,19772,3,176973,267397
2025-02-21 18:09:26.144,100868,24052,18842,3,173510,262092
2025-02-21 18:09:26.305,101278,24551,19167,4,174403,263548
2025-02-21 18:09:26.335,102335,24782,19365,4,175522,265594
2025-02-21 18:09:26.521,101966,24557,19204,4,174458,264850
2025-02-21 18:09:26.535,99894,23921,18530,3,171775,260547
2025-02-21 18:09:26.695,99875,24160,18733,4,171738,260430
2025-02-21 18:09:26.740,100706,24571,19192,4,173936,264031
2025-02-21 18:09:26.850,101367,24783,19450,4,175309,265924
2025-02-21 18:09:27.105,100132,24255,18865,4,173622,263068
2025-02-21 18:09:27.107,99745,24238,18715,3,172889,261974
2025-02-21 18:09:27.140,101368,24539,18972,4,174239,264373
2025-02-21 18:09:27.259,102548,24864,19326,4,175978,267081
2025-02-21 18:09:27.461,101519,24528,19094,4,174780,265010
2025-02-21 18:09:27.464,100159,24046,18638,3,172201,261308
2025-02-21 18:09:27.611,100613,24271,18869,4,172855,262778
2025-02-21 18:09:27.636,101226,24745,19539,4,174983,265782
2025-02-21 18:09:27.797,100267,25109,20006,5,176117,266482
2025-02-21 18:09:27.836,98956,24691,19337,4,173974,262951
2025-02-21 18:09:27.945,99972,24871,19528,4,174631,264364
2025-02-21 18:09:28.131,100752,25003,19658,4,175880,266351
2025-02-21 18:09:28.140,101107,25212,19852,4,177003,267885
2025-02-21 18:09:28.337,99931,24758,19308,4,174967,264344
2025-02-21 18:09:28.340,99399,24784,19362,3,174808,263767
2025-02-21 18:09:28.515,99764,24908,19659,4,175946,265932
2025-02-21 18:09:28.532,99953,25057,19865,4,176702,267273
2025-02-21 18:09:28.725,98764,24657,19177,4,174470,263534
2025-02-21 18:09:28.732,99420,24883,19178,5,174243,263330
2025-02-21 18:09:28.905,101539,25265,19631,4,176687,267234
2025-02-21 18:09:28.933,102710,25520,20024,4,178404,269556
2025-02-21 18:09:29.055,101168,24847,19348,4,175593,265543
2025-02-21 18:09:29.235,100649,24551,18926,4,173247,262368
2025-02-21 18:09:29.237,101796,24866,19391,4,175436,266193
2025-02-21 18:09:29.384,102229,24987,19773,4,176537,267935
2025-02-21 18:09:29.428,100877,24361,19119,4,174080,264115
2025-02-21 18:09:29.564,100710,24045,18614,4,172211,261646
2025-02-21 18:09:29.711,102049,24646,19113,4,174272,265063
2025-02-21 18:09:29.728,103288,25008,19613,4,176698,268565
2025-02-21 18:09:29.955,102875,25073,19755,5,177252,268572
2025-02-21 18:09:29.957,100978,24394,19156,4,173670,262963
2025-02-21 18:09:30.100,101756,25015,19832,4,175282,265712
2025-02-21 18:09:30.121,102149,25251,20289,3,176972,268370
2025-02-21 18:09:30.283,102182,25271,20454,5,177451,269013
2025-02-21 18:09:30.325,100439,24676,19708,4,174481,264066
2025-02-21 18:09:30.435,101358,25280,20170,3,175895,266179
2025-02-21 18:09:30.614,102949,25743,20574,5,178238,269798
2025-02-21 18:09:30.624,103249,25883,20756,4,179733,271442
2025-02-21 18:09:30.775,101263,25319,20131,4,177360,267465
2025-02-21 18:09:30.817,100211,25115,19867,4,175438,264651
2025-02-21 18:09:30.965,101096,25323,20196,4,176781,267336
2025-02-21 18:09:31.108,101633,25378,20314,4,177493,268943
2025-02-21 18:09:31.120,100384,25019,19877,4,176227,266388
2025-02-21 18:09:31.297,99655,25001,19627,4,175080,264271
2025-02-21 18:09:31.304,101240,25305,19933,3,176277,266608
2025-02-21 18:09:31.447,102141,25498,20191,3,177632,268680
2025-02-21 18:09:31.696,100860,25143,19852,3,176695,267016
2025-02-21 18:09:31.699,99159,24533,19042,5,173467,262071
2025-02-21 18:09:31.701,99795,24876,19390,3,174187,263501
2025-02-21 18:09:31.845,100768,25066,19698,3,176150,266782
2025-02-21 18:09:31.893,100592,24904,19617,3,176361,266772
2025-02-21 18:09:32.026,99012,24379,18957,3,173671,262491
2025-02-21 18:09:32.240,99733,24693,19180,3,174181,263501
2025-02-21 18:09:32.242,101515,25029,19573,4,176353,266478
2025-02-21 18:09:32.288,102528,25204,19794,4,177577,268392
2025-02-21 18:09:32.423,100720,24567,19091,4,175057,263854
2025-02-21 18:09:32.565,100272,24513,19079,3,174027,262379
2025-02-21 18:09:32.588,101211,24795,19509,3,175975,265653
2025-02-21 18:09:32.748,101408,24833,19652,4,176787,267011
2025-02-21 18:09:32.788,99965,24557,19175,4,174700,263420
2025-02-21 18:09:32.900,99733,24595,19075,3,174002,262362
2025-02-21 18:09:33.078,101140,24879,19443,3,175766,265282
2025-02-21 18:09:33.084,101867,25144,19791,4,177130,267594
2025-02-21 18:09:33.230,100293,24621,19142,4,174566,264176
2025-02-21 18:09:33.480,99052,24102,18590,4,171520,260062
2025-02-21 18:09:33.482,99764,24359,18989,3,173100,262754
2025-02-21 18:09:33.485,100720,24559,19299,4,174903,265664
2025-02-21 18:09:33.625,100311,24482,19155,4,174540,264983
2025-02-21 18:09:33.813,99338,24290,18701,5,172349,261593
2025-02-21 18:09:33.816,100485,24569,18958,3,173575,263784
2025-02-21 18:09:34.037,102218,24927,19355,3,176525,267040
2025-02-21 18:09:34.040,102494,25085,19487,3,177558,268044
2025-02-21 18:09:34.081,100357,24269,18623,3,173677,262374
2025-02-21 18:09:34.229,101108,24480,18818,3,173799,262891
2025-02-21 18:09:34.382,101990,24517,19073,3,175490,265860
2025-02-21 18:09:34.385,102068,24470,19173,2,175908,266715
2025-02-21 18:09:34.566,100782,24159,18697,3,173811,263002
2025-02-21 18:09:34.584,101163,24500,18894,4,174061,263491
2025-02-21 18:09:34.716,102488,24701,19164,4,175812,266394
2025-02-21 18:09:34.902,103153,24837,19431,4,177379,268341
2025-02-21 18:09:34.905,102035,24512,19126,3,175761,265779
2025-02-21 18:09:35.050,101560,24403,18987,3,174227,263682
2025-02-21 18:09:35.104,102438,24794,19453,3,176046,266616
2025-02-21 18:09:35.291,103000,24761,19682,3,177300,268590
2025-02-21 18:09:35.293,101498,24404,19328,4,175854,265941
2025-02-21 18:09:35.447,100979,24447,19157,3,174696,264099
2025-02-21 18:09:35.480,102392,24849,19560,3,176309,266686
2025-02-21 18:09:35.726,103241,24944,19758,4,177825,268592
2025-02-21 18:09:35.729,102179,24566,19434,3,176839,266738
2025-02-21 18:09:35.773,100923,24152,18912,3,174113,263038
2025-02-21 18:09:35.876,101797,24507,19353,3,175592,265436
2025-02-21 18:09:36.056,102810,24642,19464,4,177335,268148
2025-02-21 18:09:36.072,102303,24248,19064,4,176798,267078
2025-02-21 18:09:36.206,100921,23920,18617,4,174524,263343
2025-02-21 18:09:36.393,102475,24584,19225,3,176231,266167
2025-02-21 18:09:36.396,103833,25093,19762,4,178185,269070
2025-02-21 18:09:36.538,103314,25043,19756,4,178332,269132
2025-02-21 18:09:36.565,101169,24249,18925,3,174720,263763
2025-02-21 18:09:36.727,101700,24535,19265,3,175097,264728
2025-02-21 18:09:36.770,102058,24662,19566,3,176241,266743
2025-02-21 18:09:36.946,102044,24802,19775,3,176912,267839
2025-02-21 18:09:36.968,100817,24464,19280,4,175801,265287
2025-02-21 18:09:37.122,101074,24542,19285,4,175800,265529
2025-02-21 18:09:37.169,102189,24606,19366,6,176752,267254
2025-02-21 18:09:37.340,102817,24822,19545,4,177528,268678
2025-02-21 18:09:37.373,101198,24205,18901,4,174892,264886
2025-02-21 18:09:37.517,100872,23997,18760,3,173664,263449
2025-02-21 18:09:37.565,101405,24133,19062,3,174806,265486
2025-02-21 18:09:37.667,101862,24386,19363,4,176001,267215
2025-02-21 18:09:37.857,100879,24403,19199,3,175607,266024
2025-02-21 18:09:37.865,100389,24336,19005,4,174750,264660
2025-02-21 18:09:38.001,101677,24406,19192,3,175837,266464
2025-02-21 18:09:38.186,102778,24731,19524,4,177751,268889
2025-02-21 18:09:38.188,102335,24742,19415,4,177760,268185
2025-02-21 18:09:38.340,101021,24311,18912,4,175448,264596
2025-02-21 18:09:38.357,101648,24335,19199,4,176151,266034
2025-02-21 18:09:38.594,102264,24468,19491,4,177463,268235
2025-02-21 18:09:38.596,101720,24511,19456,4,177399,267881
2025-02-21 18:09:38.749,100684,24412,19027,4,176046,265301
2025-02-21 18:09:38.761,101497,24495,19177,4,176458,266545
2025-02-21 18:09:38.934,102438,24492,19324,4,177750,268285
2025-02-21 18:09:38.965,102405,24703,19507,4,178645,269157
2025-02-21 18:09:39.077,100552,24226,18852,4,176249,265183
2025-02-21 18:09:39.260,100880,24369,19102,4,176155,265542
2025-02-21 18:09:39.265,101457,24230,19252,4,177317,267535
2025-02-21 18:09:39.413,101518,24308,19368,3,177809,268311
2025-02-21 18:09:39.456,100100,24154,18915,4,176306,265342
2025-02-21 18:09:39.600,100378,24473,19123,3,176571,266049
2025-02-21 18:09:39.750,101871,24589,19317,5,178058,268286
2025-02-21 18:09:39.757,102610,24752,19567,4,179466,270201
2025-02-21 18:09:39.937,100986,24330,18974,4,177166,266579
2025-02-21 18:09:39.961,100570,24169,18752,4,175162,264139
2025-02-21 18:09:40.083,101266,24397,19138,4,176655,266830
2025-02-21 18:09:40.323,101654,24328,19267,3,177447,268404
2025-02-21 18:09:40.325,100319,24047,18875,4,176039,265696
2025-02-21 18:09:40.365,100253,24253,18970,3,175652,265046
2025-02-21 18:09:40.477,101588,24566,19311,4,176872,267296
2025-02-21 18:09:40.666,102241,24672,19489,3,177930,268493
2025-02-21 18:09:40.668,101480,24459,19276,4,177425,267424
2025-02-21 18:09:40.886,99968,24099,18779,4,175036,263882
2025-02-21 18:09:40.888,100571,24393,19168,2,176093,265980
2025-02-21 18:09:41.067,101163,24541,19438,3,177305,268073
2025-02-21 18:09:41.069,100049,24321,19332,3,177691,267875
2025-02-21 18:09:41.213,98741,24108,18874,3,175770,264848
2025-02-21 18:09:41.249,100059,24463,19168,3,176976,266788
2025-02-21 18:09:41.403,101712,24723,19397,3,178291,268802
2025-02-21 18:09:41.450,101673,24663,19345,4,178434,269148
2025-02-21 18:09:41.552,99570,23981,18606,4,175729,264499
2025-02-21 18:09:41.735,100153,24283,18955,5,176102,265480
2025-02-21 18:09:41.753,100746,24498,19298,5,176992,267741
2025-02-21 18:09:41.889,101187,24694,19556,3,177625,269368
2025-02-21 18:09:42.122,100110,24266,19004,4,176362,266577
2025-02-21 18:09:42.124,100642,24523,19169,4,176857,267557
2025-02-21 18:09:42.157,101941,24707,19392,3,177834,269407
2025-02-21 18:09:42.265,102279,24873,19571,3,178235,270572
2025-02-21 18:09:42.451,100621,24078,18809,4,175477,266865
2025-02-21 18:09:42.454,100682,24067,18822,4,174761,266069
2025-02-21 18:09:42.662,101353,24350,19237,3,175772,268459
2025-02-21 18:09:42.664,102302,24677,19645,5,177107,270816
2025-02-21 18:09:42.846,101260,24388,19248,4,176221,269006
2025-02-21 18:09:42.849,101060,24283,19054,4,175417,267879
2025-02-21 18:09:42.997,102697,24532,19326,4,177114,270509
2025-02-21 18:09:43.042,103851,24831,19684,5,178629,272733
2025-02-21 18:09:43.177,103111,24643,19479,3,177430,271141
2025-02-21 18:09:43.332,101859,24194,19127,3,175129,267593
2025-02-21 18:09:43.345,102594,24414,19569,4,176408,269872
2025-02-21 18:09:43.517,102915,24587,19893,3,177130,271707
2025-02-21 18:09:43.545,102271,24675,19843,4,177197,271110
2025-02-21 18:09:43.756,101469,24644,19521,4,176538,269001
2025-02-21 18:09:43.758,102383,24622,19587,3,176961,270333
2025-02-21 18:09:43.936,103526,24759,19816,4,178006,272091
2025-02-21 18:09:43.949,103849,25005,19973,4,178874,273085
2025-02-21 18:09:44.089,101786,24491,19299,5,176067,268354
2025-02-21 18:09:44.334,102428,24607,19563,3,176335,269157
2025-02-21 18:09:44.336,103082,24716,19955,3,177716,271521
2025-02-21 18:09:44.341,103558,25030,20281,4,178653,273320
2025-02-21 18:09:44.481,102191,24814,19760,4,177341,270279
2025-02-21 18:09:44.660,102429,24955,19786,4,177031,270151
2025-02-21 18:09:44.663,103783,24916,19919,4,178156,272048
2025-02-21 18:09:44.817,104531,25190,20235,4,179863,274051
2025-02-21 18:09:44.833,103412,25063,19940,4,179081,272090
2025-02-21 18:09:45.004,102617,24954,19796,3,177333,269491
2025-02-21 18:09:45.033,103156,25023,20107,4,178335,271477
2025-02-21 18:09:45.153,103687,25052,20349,4,179460,273314
2025-02-21 18:09:45.334,102333,24905,20068,3,178254,271112
2025-02-21 18:09:45.337,101762,25048,19954,4,177071,269476
2025-02-21 18:09:45.551,103069,25391,20254,5,178382,271860
2025-02-21 18:09:45.553,104344,25488,20439,5,180248,274122
2025-02-21 18:09:45.773,103548,25367,20263,4,180229,273177
2025-02-21 18:09:45.775,101715,25077,19803,4,177291,269076
2025-02-21 18:09:45.931,102347,25347,20112,3,177797,270256
2025-02-21 18:09:45.934,103125,25415,20383,4,179290,272665
2025-02-21 18:09:46.239,102615,25234,20267,4,179425,272503
2025-02-21 18:09:46.242,101472,25098,19797,4,177498,269406
2025-02-21 18:09:46.244,102291,25391,19997,4,178009,270910
2025-02-21 18:09:46.400,103466,25590,20243,4,179508,273157
2025-02-21 18:09:46.433,103723,25708,20421,3,180413,274437
2025-02-21 18:09:46.604,101900,25287,19758,2,178839,271226
2025-02-21 18:09:46.637,102102,25399,19937,4,178470,270887
2025-02-21 18:09:46.767,103054,25598,20355,5,180046,273461
2025-02-21 18:09:46.963,103360,25685,20551,3,180589,274533
2025-02-21 18:09:46.966,101819,25364,19967,3,179347,271562
2025-02-21 18:09:47.109,101917,25468,19945,4,178903,271315
2025-02-21 18:09:47.129,103401,25561,20084,3,179696,273059
2025-02-21 18:09:47.352,104281,25793,20333,3,181181,274869
2025-02-21 18:09:47.354,102501,25250,19649,2,179005,271217
2025-02-21 18:09:47.507,101841,25125,19583,3,177427,269228
2025-02-21 18:09:47.534,102556,25433,20103,4,178753,271806
2025-02-21 18:09:47.695,103130,25582,20323,5,179850,273490
2025-02-21 18:09:47.722,101905,25223,19733,4,178416,270804
2025-02-21 18:09:47.846,101418,25022,19423,4,177088,268955
2025-02-21 18:09:48.021,102700,25107,19580,3,177905,270950
2025-02-21 18:09:48.025,103489,25422,19935,3,179414,272604
2025-02-21 18:09:48.173,102275,25638,19871,4,179692,272489
2025-02-21 18:09:48.357,100768,25095,19223,4,176518,267944
2025-02-21 18:09:48.360,101486,25114,19441,3,177341,269434
2025-02-21 18:09:48.503,102171,25110,19579,4,177927,271240
2025-02-21 18:09:48.529,101500,24387,18792,3,175581,268741
2025-02-21 18:09:48.690,101115,24239,18406,5,174331,265827
2025-02-21 18:09:48.721,102268,24582,18785,4,175435,268310
2025-02-21 18:09:48.905,103531,24800,19139,3,176920,270707
2025-02-21 18:09:48.921,104238,25152,19385,3,177970,272308
2025-02-21 18:09:49.084,102415,24604,18782,4,175182,267334
2025-02-21 18:09:49.122,102791,24892,19176,5,175705,268622
2025-02-21 18:09:49.232,102958,24849,19479,4,176621,270500
2025-02-21 18:09:49.414,103413,25054,19668,4,177414,271801
2025-02-21 18:09:49.425,102172,24784,19197,3,175746,268444
2025-02-21 18:09:49.623,102522,25118,19398,3,176101,269426
2025-02-21 18:09:49.625,103956,25181,19532,3,177326,271521
2025-02-21 18:09:49.805,104915,25456,19830,4,179387,273670
2025-02-21 18:09:49.818,103534,25105,19369,3,177637,269946
2025-02-21 18:09:49.948,102857,25088,19358,4,176529,267974
2025-02-21 18:09:50.126,103389,25269,19716,3,177546,270560
2025-02-21 18:09:50.129,103764,25250,19882,3,178168,271932
2025-02-21 18:09:50.279,102364,24863,19435,4,176654,269008
2025-02-21 18:09:50.321,102043,25013,19309,2,175829,267556
2025-02-21 18:09:50.465,103567,25441,19719,3,177382,270686
2025-02-21 18:09:50.514,104367,25778,20107,4,179009,272842
2025-02-21 18:09:50.675,103532,25532,19936,3,178128,270787
2025-02-21 18:09:50.714,102345,25146,19422,4,175729,267260
2025-02-21 18:09:50.859,102619,25509,19924,4,176904,269406
2025-02-21 18:09:51.005,102860,25575,20133,4,177915,271147
2025-02-21 18:09:51.017,102493,25370,19863,4,177229,269672
2025-02-21 18:09:51.272,101715,25142,19403,4,175893,267230
2025-02-21 18:09:51.274,102697,25559,19785,3,177335,269817
2025-02-21 18:09:51.317,103785,25801,20061,3,178788,271787
2025-02-21 18:09:51.422,103876,25977,20268,4,179371,272224
2025-02-21 18:09:51.612,102073,25172,19364,4,176474,267340
2025-02-21 18:09:51.615,102196,25413,19662,4,176808,268161
2025-02-21 18:09:51.781,102632,25649,20090,4,178449,270965
2025-02-21 18:09:51.809,102519,25673,20144,4,178687,271414
2025-02-21 18:09:51.977,101439,25265,19455,5,176697,267929
2025-02-21 18:09:52.002,101716,25466,19549,3,177156,268540
2025-02-21 18:09:52.138,102983,25555,19760,4,178541,270867
2025-02-21 18:09:52.315,103884,25809,20055,4,179865,272905
2025-02-21 18:09:52.318,102666,25552,19673,3,178581,270465
2025-02-21 18:09:52.528,101564,25290,19329,3,176556,267299
2025-02-21 18:09:52.530,102203,25426,19734,4,177869,269782
2025-02-21 18:09:52.707,102592,25508,19988,3,178916,271578
2025-02-21 18:09:52.709,101705,25299,19609,4,177969,269737
2025-02-21 18:09:52.925,101034,25302,19300,4,176419,267361
2025-02-21 18:09:52.927,102209,25512,19554,4,177401,269458
2025-02-21 18:09:53.113,103311,25544,19780,3,179097,271541
2025-02-21 18:09:53.115,103174,25648,19880,4,179542,271727
2025-02-21 18:09:53.257,100909,25080,19124,4,176539,266662
2025-02-21 18:09:53.291,101238,25382,19490,3,176994,267823
2025-02-21 18:09:53.452,101798,25258,19671,3,178203,269935
2025-02-21 18:09:53.493,101441,24962,19442,4,177938,269879
2025-02-21 18:09:53.611,100310,23771,18069,4,174041,263811
2025-02-21 18:09:53.801,101452,23975,18108,3,174160,264096
2025-02-21 18:09:53.804,103122,24589,18698,5,176264,268010
2025-02-21 18:09:53.953,103234,24883,19220,4,177501,269555
2025-02-21 18:09:53.999,101385,24601,18811,2,175838,266436
2025-02-21 18:09:54.200,100533,24333,18475,3,173896,263393
2025-02-21 18:09:54.202,101466,24644,18913,3,175065,265975
2025-02-21 18:09:54.343,102186,24693,19160,4,175904,267773
2025-02-21 18:09:54.389,101800,24630,19134,4,175821,267377
2025-02-21 18:09:54.524,100633,24476,18772,4,174282,264518
2025-02-21 18:09:54.743,102039,24929,19228,4,175704,267178
2025-02-21 18:09:54.746,103582,25355,19670,5,177478,270175
2025-02-21 18:09:54.922,103827,25583,19908,5,178161,271201
2025-02-21 18:09:54.925,101463,24767,19131,3,175096,265446
2025-02-21 18:09:55.075,102110,25122,19544,3,174882,266786
2025-02-21 18:09:55.086,102961,25325,19898,4,174943,269731
2025-02-21 18:09:55.255,102655,25292,19914,4,174588,269740
2025-02-21 18:09:55.286,101272,24642,19163,4,172626,265262
2025-02-21 18:09:55.403,101600,24799,19221,3,172635,266031
2025-02-21 18:09:55.583,102786,24925,19362,4,173481,268046
2025-02-21 18:09:55.586,103098,24896,19326,4,173189,268967
2025-02-21 18:09:55.740,101468,24080,18577,4,170300,263870
2025-02-21 18:09:56.017,101494,24143,18676,4,169819,263591
2025-02-21 18:09:56.019,102067,24460,19106,4,171501,266573
2025-02-21 18:09:56.021,102350,24616,19291,4,172309,267665
2025-02-21 18:09:56.161,100960,24193,18725,4,170809,264204
2025-02-21 18:09:56.182,101013,24277,18728,5,170217,263810
2025-02-21 18:09:56.344,102368,24526,19037,3,171695,266643
2025-02-21 18:09:56.382,103014,24774,19286,4,173066,268315
2025-02-21 18:09:56.490,101624,24429,18893,4,171613,265375
2025-02-21 18:09:56.671,100885,24266,18674,3,170364,263253
2025-02-21 18:09:56.686,101485,24359,18984,2,171067,265295
2025-02-21 18:09:56.817,102305,24462,19269,4,172423,267523
2025-02-21 18:09:57.006,101470,24179,18985,4,171610,265460
2025-02-21 18:09:57.009,100829,24264,18871,4,170523,263679
2025-02-21 18:09:57.159,102236,24584,19189,3,171631,266538
2025-02-21 18:09:57.177,103385,24644,19391,4,173423,268762
2025-02-21 18:09:57.354,103139,24551,19340,4,173201,267933
2025-02-21 18:09:57.382,101257,24109,18871,3,171019,263545
2025-02-21 18:09:57.564,101547,24569,19381,3,171817,265287
2025-02-21 18:09:57.582,102283,24652,19783,4,173319,268052
2025-02-21 18:09:57.743,102196,24559,19757,5,173685,268414
2025-02-21 18:09:57.782,100936,24114,19156,4,171880,264650
2025-02-21 18:09:57.891,101709,24511,19423,3,172379,266020
2025-02-21 18:09:58.140,102809,24651,19613,4,173479,268009
2025-02-21 18:09:58.142,102902,24419,19635,4,173490,267802
2025-02-21 18:09:58.174,101332,23885,18983,4,171650,264082
2025-02-21 18:09:58.284,101130,24002,18987,3,171149,263120
2025-02-21 18:09:58.502,102053,24475,19574,4,172853,266561
2025-02-21 18:09:58.505,102315,24487,19753,3,173566,267860
2025-02-21 18:09:58.652,100692,23984,19266,3,172323,265126
2025-02-21 18:09:58.679,100061,24311,19415,4,172284,264406
2025-02-21 18:09:58.845,101419,24671,19717,4,173493,266790
2025-02-21 18:09:58.870,102315,24915,19921,3,174613,269035
2025-02-21 18:09:58.989,100991,24234,19334,3,173029,266784
2025-02-21 18:09:59.172,99090,23725,18726,4,171064,262625
2025-02-21 18:09:59.175,100052,23957,19123,4,171653,264335
2025-02-21 18:09:59.387,100994,24133,19384,4,172632,266574
2025-02-21 18:09:59.390,100072,23922,19199,4,172199,265716
2025-02-21 18:09:59.559,98665,23418,18583,5,170606,261885
2025-02-21 18:09:59.574,99758,23704,18832,3,171211,263344
2025-02-21 18:09:59.707,101706,24061,19195,3,172691,265963
2025-02-21 18:09:59.970,101841,24242,19367,4,173630,267104
2025-02-21 18:09:59.973,99537,23387,18575,4,170802,261657
2025-02-21 18:09:59.975,99614,23550,18839,4,170716,261962
2025-02-21 18:10:00.111,100383,23744,19186,5,171767,264590
2025-02-21 18:10:00.301,100399,23859,19279,5,171978,265302
2025-02-21 18:10:00.304,98883,23446,18659,4,170319,261462
2025-02-21 18:10:00.450,99208,23545,18766,3,170485,261647
2025-02-21 18:10:00.470,101103,23828,19085,4,171927,264268
2025-02-21 18:10:00.642,102234,24237,19414,3,173926,267076
2025-02-21 18:10:00.662,100689,23815,18960,3,172026,263526
2025-02-21 18:10:00.794,100025,23587,18813,4,170851,261377
2025-02-21 18:10:01.046,100577,23658,19112,5,171695,263679
2025-02-21 18:10:01.049,100940,23734,19287,4,171891,265072
2025-02-21 18:10:01.066,99734,23451,18903,3,170608,262627
2025-02-21 18:10:01.188,99206,23504,18730,4,170197,260760
2025-02-21 18:10:01.368,100660,23605,18919,4,171390,263016
2025-02-21 18:10:01.372,101881,23591,18935,4,172272,265174
2025-02-21 18:10:01.600,101695,23460,18733,4,172092,264518
2025-02-21 18:10:01.602,100429,23201,18437,4,170528,261009
2025-02-21 18:10:01.774,101112,23576,18986,4,171492,263181
2025-02-21 18:10:01.776,101416,23556,19356,3,172283,264697
2025-02-21 18:10:01.924,100656,23588,19439,4,172281,264539
2025-02-21 18:10:01.963,99448,23354,18959,3,170809,261152
2025-02-21 18:10:02.106,100213,23801,19273,4,171555,262655
2025-02-21 18:10:02.258,101716,24024,19537,4,173160,265273
2025-02-21 18:10:02.262,101491,24135,19724,4,174429,266310
2025-02-21 18:10:02.442,99953,23537,19089,4,171961,261856
2025-02-21 18:10:02.454,99773,23728,19175,3,171852,261539
2025-02-21 18:10:02.651,100581,23950,19507,4,172791,263957
2025-02-21 18:10:02.659,100646,23852,19670,4,173236,265076
2025-02-21 18:10:02.829,99761,23559,19312,3,172343,263081
2025-02-21 18:10:02.859,99174,23671,19225,4,171699,261653
2025-02-21 18:10:02.977,100727,24179,19676,3,173103,264316
2025-02-21 18:10:03.161,102195,24355,19889,3,175088,267117
2025-02-21 18:10:03.164,101451,23899,19607,4,174396,265482
2025-02-21 18:10:03.386,99816,23485,19124,3,171939,261221
2025-02-21 18:10:03.390,100341,23912,19549,3,172977,263258
2025-02-21 18:10:03.567,100981,24051,19790,4,173824,265464
2025-02-21 18:10:03.569,99764,23466,19401,4,172758,263626
2025-02-21 18:10:03.717,99081,23300,19010,4,171531,260776
2025-02-21 18:10:03.754,100363,23871,19409,4,173021,263213
2025-02-21 18:10:03.899,101902,24256,19761,4,174920,266191
2025-02-21 18:10:04.052,101259,24001,19630,3,174660,265635
2025-02-21 18:10:04.059,98765,23228,18866,3,171889,259969
2025-02-21 18:10:04.232,99094,23616,19278,3,172433,261406
2025-02-21 18:10:04.247,99867,23836,19552,5,173028,263679
2025-02-21 18:10:04.382,100115,23911,19505,4,172507,263829
2025-02-21 18:10:04.631,98761,23319,18675,3,169398,259444
2025-02-21 18:10:04.634,99480,23759,18901,3,169909,261608
2025-02-21 18:10:04.650,100954,24159,19213,5,171222,264906
2025-02-21 18:10:04.766,101915,24520,19533,6,172613,267388
2025-02-21 18:10:04.960,100686,23915,19011,5,170961,264196
2025-02-21 18:10:04.962,100561,23771,19040,4,170036,263373
2025-02-21 18:10:05.113,101138,23955,19418,4,171161,265615
2025-02-21 18:10:05.142,101883,24280,19787,4,172476,267338
2025-02-21 18:10:05.298,100761,24024,19470,4,171506,265085
2025-02-21 18:10:05.346,100236,23813,19208,3,170319,263448
2025-02-21 18:10:05.448,101541,23909,19334,3,171508,265602
2025-02-21 18:10:05.625,102670,24299,19663,3,173452,268257
2025-02-21 18:10:05.647,102177,24244,19591,4,173185,267463
2025-02-21 18:10:05.774,100657,23823,19191,4,171375,263363
2025-02-21 18:10:05.995,101524,24041,19620,3,172222,265508
2025-02-21 18:10:06.000,101914,24179,19955,4,173092,267454
2025-02-21 18:10:06.038,101267,24124,19874,5,172787,266651
2025-02-21 18:10:06.206,100223,24004,19475,3,171338,263493
2025-02-21 18:10:06.243,101103,24354,19719,3,171985,265368
2025-02-21 18:10:06.391,102219,24414,19909,4,173465,267494
2025-02-21 18:10:06.534,102908,24602,20034,3,174977,269084
2025-02-21 18:10:06.542,101083,24022,19422,5,172234,263972
2025-02-21 18:10:06.800,101347,24345,19690,3,172265,264555
2025-02-21 18:10:06.802,101652,24311,19895,4,173051,266398
2025-02-21 18:10:06.846,102012,24287,19993,4,173540,267523
2025-02-21 18:10:06.947,100792,23964,19546,3,172303,264376
2025-02-21 18:10:07.121,100881,24313,19687,4,172290,264691
2025-02-21 18:10:07.138,102484,24588,19881,4,173701,267418
2025-02-21 18:10:07.268,103159,24634,19994,4,174872,269058
2025-02-21 18:10:07.458,101782,24060,19507,3,173011,265457
2025-02-21 18:10:07.460,101487,24113,19502,3,172091,264145
2025-02-21 18:10:07.606,102267,24464,19825,3,173297,267276
2025-02-21 18:10:07.642,103317,24574,19998,4,174526,270037
2025-02-21 18:10:07.788,102564,24283,19736,4,174292,268675
2025-02-21 18:10:07.998,102057,24297,19608,4,173275,267397
2025-02-21 18:10:08.001,103526,24560,19783,4,174557,270098
2025-02-21 18:10:08.034,104764,24991,20061,3,176591,272991
2025-02-21 18:10:08.175,104694,24876,19997,4,177238,272823
2025-02-21 18:10:08.326,103204,24467,19674,4,174783,268235
2025-02-21 18:10:08.335,103791,24860,20110,4,175505,270405
2025-02-21 18:10:08.578,104292,25201,20699,5,176539,272359
2025-02-21 18:10:08.581,103285,25109,20691,3,176340,271022
2025-02-21 18:10:08.729,102189,24535,19937,3,174359,266755
2025-02-21 18:10:08.739,102967,24969,20270,3,175116,269142
2025-02-21 18:10:08.906,104297,25353,20587,4,176590,271690
2025-02-21 18:10:08.930,104613,25554,20727,3,177333,272726
2025-02-21 18:10:09.066,102504,24557,19869,3,173914,266671
2025-02-21 18:10:09.241,102850,24806,20220,3,174340,267755
2025-02-21 18:10:09.243,103290,25050,20643,3,175464,270489
2025-02-21 18:10:09.395,103128,25236,20910,4,176149,271138
2025-02-21 18:10:09.435,101599,24716,20149,4,173836,266433
2025-02-21 18:10:09.580,101754,24847,20196,3,173875,267141
2025-02-21 18:10:09.783,103169,25078,20457,3,175609,269899
2025-02-21 18:10:09.785,103655,25303,20612,4,176642,271157
2025-02-21 18:10:09.828,101837,24717,19936,3,174024,266243
2025-02-21 18:10:09.959,101623,24822,19967,3,173347,265325
2025-02-21 18:10:10.102,102054,24962,20349,4,174679,268246
2025-02-21 18:10:10.127,102158,25067,20573,4,175326,269296
2025-02-21 18:10:10.357,100672,24733,20005,4,173905,265901
2025-02-21 18:10:10.360,100344,25016,20050,4,173856,265712
2025-02-21 18:10:10.508,101459,25121,20107,3,174580,267584
2025-02-21 18:10:10.530,102382,25126,20207,3,175446,269354
2025-02-21 18:10:10.688,101560,24801,19819,4,174138,267147
2025-02-21 18:10:10.723,100732,24604,19489,4,172477,264252
2025-02-21 18:10:10.842,101448,25025,19934,3,173546,266969
2025-02-21 18:10:11.021,102047,25004,20119,3,174352,268897
2025-02-21 18:10:11.024,101211,24648,19783,4,173405,267252
2025-02-21 18:10:11.168,100393,24545,19449,5,172180,264495
2025-02-21 18:10:11.409,101462,24946,19763,4,173109,266773
2025-02-21 18:10:11.412,102810,25282,20098,3,174750,269496
2025-02-21 18:10:11.427,102789,25123,20108,3,174960,269616
2025-02-21 18:10:11.554,100510,24399,19342,4,171859,263642
2025-02-21 18:10:11.738,101180,24826,19765,4,172451,265289
2025-02-21 18:10:11.742,101682,25134,20188,4,173584,268159
2025-02-21 18:10:11.963,101279,24946,20032,4,173233,267740
2025-02-21 18:10:11.966,99873,24365,19325,3,171286,263518
2025-02-21 18:10:12.141,100210,24751,19557,3,171860,264510
2025-02-21 18:10:12.143,101551,25119,19862,4,173160,267133
2025-02-21 18:10:12.290,101976,25386,20089,4,173968,268557
2025-02-21 18:10:12.324,100045,24546,19254,4,171555,263933
2025-02-21 18:10:12.477,99759,24522,19140,4,171056,262663
2025-02-21 18:10:12.515,100212,24922,19667,4,172358,265586
2025-02-21 18:10:12.621,100139,25275,20240,3,173590,267614
2025-02-21 18:10:12.800,98515,24820,19533,4,172106,264185
2025-02-21 18:10:12.820,98203,24799,19318,4,171969,263360
2025-02-21 18:10:12.953,99547,24938,19441,4,172684,265019
2025-02-21 18:10:13.196,100333,25150,19623,5,173047,266944
2025-02-21 18:10:13.199,98947,24763,19105,4,171351,264205
2025-02-21 18:10:13.219,97911,24463,18604,3,169443,261261
2025-02-21 18:10:13.341,98584,24565,18823,4,170373,263480
2025-02-21 18:10:13.527,99483,24799,19159,4,171657,265723
2025-02-21 18:10:13.530,98386,24594,18888,2,170900,263904
2025-02-21 18:10:13.704,97419,24506,18514,4,169825,261239
2025-02-21 18:10:13.716,98607,24732,18678,4,170499,262945
2025-02-21 18:10:13.886,99660,24749,18806,3,171547,264983
2025-02-21 18:10:13.915,99244,24587,18653,4,171535,264499
2025-02-21 18:10:14.037,97479,24111,18118,4,169507,259991
2025-02-21 18:10:14.221,98014,24582,18641,5,170081,261585
2025-02-21 18:10:14.223,98680,24799,19002,3,171297,264351
2025-02-21 18:10:14.374,98077,24475,18752,3,170704,263371
2025-02-21 18:10:14.407,97078,23718,17817,4,167561,258348
2025-02-21 18:10:14.559,97757,24020,17999,4,167620,259601
2025-02-21 18:10:14.711,98959,24414,18344,4,169019,262099
2025-02-21 18:10:14.714,99174,24367,18328,4,169185,262463
2025-02-21 18:10:14.943,97545,23792,17736,3,167896,258506
2025-02-21 18:10:14.945,97752,24093,18010,3,167994,259063
2025-02-21 18:10:15.090,98275,24498,18518,4,169421,261918
2025-02-21 18:10:15.116,98281,24596,18682,3,169796,262745
2025-02-21 18:10:15.273,96910,24006,18000,4,168151,259199
2025-02-21 18:10:15.304,96998,24253,18170,4,168444,259846
2025-02-21 18:10:15.493,97952,24563,18543,4,169813,261773
2025-02-21 18:10:15.508,99089,24986,18919,3,171800,264256
2025-02-21 18:10:15.666,97821,24607,18514,4,170620,261454
2025-02-21 18:10:15.707,96685,24263,18112,3,169441,258942
2025-02-21 18:10:15.813,97511,24633,18575,4,170879,261774
2025-02-21 18:10:15.999,97935,24886,18892,4,171787,263661
2025-02-21 18:10:16.012,97449,24667,18571,4,170756,261717
2025-02-21 18:10:16.179,96880,24596,18297,4,170105,259854
2025-02-21 18:10:16.204,98413,24886,18623,4,171459,262215
2025-02-21 18:10:16.363,99684,25174,18917,3,173042,264446
2025-02-21 18:10:16.404,98809,24799,18575,4,171756,262312
2025-02-21 18:10:16.576,97507,24479,18173,4,170149,258956
2025-02-21 18:10:16.604,97985,24683,18436,3,171043,260675
2025-02-21 18:10:16.753,98745,24797,18701,3,171993,263292
2025-02-21 18:10:16.899,97784,24453,18362,4,170588,261065
2025-02-21 18:10:16.908,96973,24370,18015,3,169302,258489
2025-02-21 18:10:17.167,98434,24760,18284,3,170480,261053
2025-02-21 18:10:17.169,99530,24832,18475,4,171678,263219
2025-02-21 18:10:17.200,99086,24603,18369,3,171339,262446
2025-02-21 18:10:17.316,97554,24223,17948,4,169519,258514
2025-02-21 18:10:17.502,98140,24707,18473,3,170463,260295
2025-02-21 18:10:17.504,98873,25086,18961,3,172002,263163
2025-02-21 18:10:17.644,98680,24984,18954,4,172433,263714
2025-02-21 18:10:17.692,97298,24495,18406,4,170652,260053
2025-02-21 18:10:17.827,97635,24896,18638,3,171314,260825
2025-02-21 18:10:17.976,98866,25202,18947,2,172471,262844
2025-02-21 18:10:17.984,99850,25538,19247,4,174296,265417
2025-02-21 18:10:18.158,98200,24770,18602,4,172056,261193
2025-02-21 18:10:18.188,97759,24797,18546,3,171691,259812
2025-02-21 18:10:18.370,98498,25206,18983,3,173230,262723
2025-02-21 18:10:18.388,99104,25449,19288,5,174253,264720
2025-02-21 18:10:18.541,97862,24886,18747,4,172793,262047
2025-02-21 18:10:18.588,97322,24738,18452,3,172082,259992
2025-02-21 18:10:18.692,98435,25082,18722,3,173145,261943
2025-02-21 18:10:18.948,99879,25433,19069,3,174984,264728
2025-02-21 18:10:18.950,99148,25116,18820,4,173727,263060
2025-02-21 18:10:18.985,97109,24415,18147,4,171104,258414
2025-02-21 18:10:19.093,97595,24716,18529,3,171974,259874
2025-02-21 18:10:19.275,98182,25041,18949,4,173457,262692
2025-02-21 18:10:19.284,97820,25015,18901,5,173315,262496
2025-02-21 18:10:19.422,97056,24802,18504,4,171722,259498
2025-02-21 18:10:19.600,97224,24880,18571,3,172436,260391
2025-02-21 18:10:19.602,98683,25113,18854,3,173874,262589
2025-02-21 18:10:19.756,99304,25309,19019,3,175014,263888
2025-02-21 18:10:19.776,96849,24487,18190,3,171567,258181
2025-02-21 18:10:19.935,97192,24704,18379,3,171731,258794
2025-02-21 18:10:19.980,97536,24839,18676,4,173125,261233
2025-02-21 18:10:20.136,97168,24937,18844,3,173513,262179
2025-02-21 18:10:20.180,96291,24696,18402,3,171695,258952
2025-02-21 18:10:20.318,96479,24966,18393,3,171905,259222
2025-02-21 18:10:20.459,97938,25054,18511,4,173275,261663
2025-02-21 18:10:20.472,98307,24974,18646,3,174306,262815
2025-02-21 18:10:20.711,96486,24485,18139,4,171954,258954
2025-02-21 18:10:20.714,95902,24418,17910,3,170579,256838
2025-02-21 18:10:20.859,96407,24794,18279,3,171664,259007
2025-02-21 18:10:20.877,96987,24667,18360,5,172634,260772
2025-02-21 18:10:21.055,95526,24033,17789,3,170369,257142
2025-02-21 18:10:21.076,95431,24208,17748,4,169940,256591
2025-02-21 18:10:21.206,97172,24613,18155,4,171251,259024
2025-02-21 18:10:21.390,97533,24765,18398,3,171680,260113
2025-02-21 18:10:21.392,96342,24071,17798,4,169531,256403
2025-02-21 18:10:21.532,95698,23872,17538,4,168551,254704
2025-02-21 18:10:21.572,96053,24298,17978,3,169701,256880
2025-02-21 18:10:21.773,96824,24548,18317,3,170987,258983
2025-02-21 18:10:21.775,95918,24292,18092,4,170508,257841
2025-02-21 18:10:21.957,94773,23788,17532,6,168719,254917
2025-02-21 18:10:21.973,95947,24134,17874,4,169775,256757
2025-02-21 18:10:22.137,97549,24471,18223,4,171158,259153
2025-02-21 18:10:22.177,97643,24456,18277,5,171613,259101
2025-02-21 18:10:22.283,95674,23713,17532,4,169002,254623
2025-02-21 18:10:22.467,95793,23823,17766,4,169135,255135
2025-02-21 18:10:22.470,96235,24119,18178,4,170356,257477
2025-02-21 18:10:22.610,96372,24279,18320,4,171148,258458
2025-02-21 18:10:22.799,95149,23888,17733,3,169191,255232
2025-02-21 18:10:22.802,95253,23846,17687,3,168896,255273
2025-02-21 18:10:22.945,96712,24017,17959,2,169965,257057
2025-02-21 18:10:22.960,96968,24346,18356,3,171313,258594
2025-02-21 18:10:23.173,95099,23928,17754,4,169520,255315
2025-02-21 18:10:23.177,94479,23722,17447,3,168401,253316
2025-02-21 18:10:23.340,94784,23940,17918,3,169881,255777
2025-02-21 18:10:23.354,95056,24058,18130,3,170895,257483
2025-02-21 18:10:23.596,94193,23620,17610,4,169687,255652
2025-02-21 18:10:23.598,93848,23325,17150,4,168009,253104
2025-02-21 18:10:23.761,94953,23578,17456,3,169094,255248
2025-02-21 18:10:23.764,96744,23663,17688,5,170302,257929
2025-02-21 18:10:23.960,97872,23575,17566,4,171290,258891
2025-02-21 18:10:23.962,96141,23025,17067,4,168397,253634
2025-02-21 18:10:24.179,96536,23332,17393,3,168820,254900
2025-02-21 18:10:24.181,97393,23453,17783,4,170346,257530
2025-02-21 18:10:24.358,97260,23481,17980,4,170503,257778
2025-02-21 18:10:24.361,95693,23167,17551,5,168445,254160
2025-02-21 18:10:24.513,96289,23647,17883,4,169184,255480
2025-02-21 18:10:24.553,97661,24108,18255,3,170962,258455
2025-02-21 18:10:24.698,98347,24132,18413,4,172950,260317
2025-02-21 18:10:24.855,96888,23576,17950,3,170938,256859
2025-02-21 18:10:24.858,96518,23515,17875,3,169825,255509
2025-02-21 18:10:25.037,97174,23871,18280,3,171272,257991
2025-02-21 18:10:25.056,98260,24188,18839,3,173298,260761
2025-02-21 18:10:25.247,97216,23946,18748,4,172967,259620
2025-02-21 18:10:25.249,96669,24067,18728,3,172600,258377
2025-02-21 18:10:25.427,98533,24637,19187,4,174560,261342
2025-02-21 18:10:25.450,100160,25013,19541,4,176805,264367
2025-02-21 18:10:25.571,99437,24587,19466,5,176176,262882
2025-02-21 18:10:25.826,97152,23845,18686,3,172751,257288
2025-02-21 18:10:25.828,97826,24368,19176,4,173523,258939
2025-02-21 18:10:25.853,98415,24616,19493,4,174927,261253
2025-02-21 18:10:25.972,98483,24314,19303,3,175044,261475
2025-02-21 18:10:26.145,97295,23615,18546,3,172652,257627
2025-02-21 18:10:26.148,97954,24055,18829,4,173041,258807
2025-02-21 18:10:26.336,99388,24452,19198,4,174476,261236
2025-02-21 18:10:26.346,99817,24667,19430,3,175881,262854
2025-02-21 18:10:26.515,98263,23806,18676,4,172946,258263
2025-02-21 18:10:26.545,98295,23787,18647,3,171799,256709
2025-02-21 18:10:26.669,98898,24163,19168,3,173184,258859
2025-02-21 18:10:26.918,98949,24400,19423,4,174450,260970
2025-02-21 18:10:26.921,97081,23623,18618,2,172494,257645
2025-02-21 18:10:26.941,96415,23595,18365,4,171725,256422
2025-02-21 18:10:27.061,98156,24155,18786,5,173455,259537
2025-02-21 18:10:27.242,99334,24698,19357,3,175644,262262
2025-02-21 18:10:27.245,97534,24380,19083,4,174514,259915
2025-02-21 18:10:27.393,95497,23732,18344,3,171603,255785
2025-02-21 18:10:27.635,95616,24123,18831,4,172834,258089
2025-02-21 18:10:27.637,96103,24313,19001,4,174256,260392
2025-02-21 18:10:27.645,96150,24208,18730,4,174062,260063
2025-02-21 18:10:27.785,94716,23482,17852,4,171523,255508
2025-02-21 18:10:27.972,96139,23969,18260,4,172644,257715
2025-02-21 18:10:27.974,98061,24479,18764,5,174620,261377
2025-02-21 18:10:28.115,98403,24595,18901,4,175569,262390
2025-02-21 18:10:28.138,95561,23701,17968,5,171975,256463
2025-02-21 18:10:28.301,95861,23764,18045,4,171485,255802
2025-02-21 18:10:28.342,96536,24252,18630,4,173445,259063
2025-02-21 18:10:28.453,96998,24567,19031,4,174998,261168
2025-02-21 18:10:28.631,95188,24116,18306,4,172503,257029
2025-02-21 18:10:28.634,95084,24155,18133,3,171890,256364
2025-02-21 18:10:28.841,97008,24470,18455,3,173335,259062
2025-02-21 18:10:28.844,98419,24808,18782,3,175111,261786
2025-02-21 18:10:29.024,96912,24445,18430,4,173747,259056
2025-02-21 18:10:29.034,95542,24138,18037,5,171463,255827
2025-02-21 18:10:29.241,96059,24370,18382,3,172419,257587
2025-02-21 18:10:29.245,97027,24616,18734,3,174329,260433
2025-02-21 18:10:29.418,96650,24534,18630,4,174277,259947
2025-02-21 18:10:29.438,94959,24416,18153,3,172315,256978
2025-02-21 18:10:29.566,95581,24623,18265,4,173051,258634
2025-02-21 18:10:29.748,97099,24767,18510,4,174862,261065
2025-02-21 18:10:29.751,97462,24815,18530,4,175523,261721
2025-02-21 18:10:29.898,96135,24046,17685,4,172153,256801
2025-02-21 18:10:29.931,97057,24270,17918,4,172740,257946
2025-02-21 18:10:30.078,97803,24502,18488,5,174773,260691
2025-02-21 18:10:30.231,98333,25129,19266,4,177353,263753
2025-02-21 18:10:30.234,96381,24687,18611,3,175219,260385
2025-02-21 18:10:30.471,96689,24892,18635,3,175004,260270
2025-02-21 18:10:30.473,98353,24954,18792,4,176375,262664
2025-02-21 18:10:30.626,99278,25124,19044,3,178048,264785
2025-02-21 18:10:30.629,98027,24717,18621,4,176197,261874
2025-02-21 18:10:30.808,97533,24656,18492,5,174829,259972
2025-02-21 18:10:30.826,98505,25006,18970,5,176733,262732
2025-02-21 18:10:30.954,99412,25145,19358,4,178123,265033
2025-02-21 18:10:31.136,98328,24965,19136,4,177265,263358
2025-02-21 18:10:31.138,97578,25015,18918,3,176294,261969
2025-02-21 18:10:31.285,98985,25288,19150,3,177228,264086
2025-02-21 18:10:31.322,100397,25375,19370,4,178952,266494
2025-02-21 18:10:31.463,100466,25242,19311,4,179477,266277
2025-02-21 18:10:31.606,98534,24733,18773,4,176259,261522
2025-02-21 18:10:31.622,99108,25111,19189,5,177277,263197
2025-02-21 18:10:31.796,100151,25343,19597,4,179111,266135
2025-02-21 18:10:31.826,99536,25124,19569,4,179170,265953
2025-02-21 18:10:31.942,98437,24872,19079,3,176868,262569
2025-02-21 18:10:32.189,99095,25258,19316,3,177695,264149
2025-02-21 18:10:32.191,100657,25458,19515,4,179069,266536
2025-02-21 18:10:32.218,101414,25500,19620,3,180562,268134
2025-02-21 18:10:32.340,99477,24844,19011,4,177834,263753
2025-02-21 18:10:32.519,99622,25081,19240,4,177687,263632
2025-02-21 18:10:32.522,100518,25607,19932,4,179994,267136
2025-02-21 18:10:32.735,101256,25966,20435,3,181824,269829
2025-02-21 18:10:32.737,99218,25274,19651,4,179208,265671
2025-02-21 18:10:32.932,99545,25616,19792,4,179482,266249
2025-02-21 18:10:32.936,101272,25929,20106,3,180931,268673
2025-02-21 18:10:33.076,102567,26407,20610,4,183690,272041
2025-02-21 18:10:33.126,101455,25847,20102,4,182511,269648
2025-02-21 18:10:33.264,99662,25380,19559,4,179776,265612
2025-02-21 18:10:33.423,100433,25837,20156,3,181913,268951
2025-02-21 18:10:33.426,101071,26010,20505,3,183009,270918
2025-02-21 18:10:33.598,99685,25834,20268,4,182333,269736
2025-02-21 18:10:33.618,98911,25458,19611,4,179836,266150
2025-02-21 18:10:33.755,100060,25719,19733,4,180818,267787
2025-02-21 18:10:33.986,102269,26053,20111,4,182511,270609
2025-02-21 18:10:33.988,103042,26243,20272,4,183953,272178
2025-02-21 18:10:34.010,100222,25153,19242,3,179371,265379
2025-02-21 18:10:34.131,100540,25503,19653,4,180134,266615
2025-02-21 18:10:34.318,100479,25670,20018,4,181536,268596
2025-02-21 18:10:34.320,100344,25713,20094,4,181626,268595
2025-02-21 18:10:34.533,100287,25623,19703,4,180149,266557
2025-02-21 18:10:34.535,100580,25704,19616,4,180588,267266
2025-02-21 18:10:34.708,101517,25758,19843,4,181683,269326
2025-02-21 18:10:34.713,102445,25924,20040,4,182913,271112
2025-02-21 18:10:34.856,101781,25546,19609,4,180523,267631
2025-02-21 18:10:35.040,101211,25453,19362,4,179030,265987
2025-02-21 18:10:35.043,101511,25482,19521,4,180383,268088
2025-02-21 18:10:35.196,101507,25503,19743,4,181318,269189
2025-02-21 18:10:35.210,100830,25269,19332,3,179710,266817
2025-02-21 18:10:35.382,101055,25549,19378,5,179354,266733
2025-02-21 18:10:35.402,102069,25640,19472,5,180346,268474
2025-02-21 18:10:35.595,103396,25803,19713,5,182024,270697
2025-02-21 18:10:35.601,102667,25555,19443,4,180927,268847
2025-02-21 18:10:35.775,101553,25349,19118,4,178956,266192
2025-02-21 18:10:35.795,101988,25665,19487,4,180667,268760
2025-02-21 18:10:35.925,102512,25699,19693,4,182102,270813
2025-02-21 18:10:36.173,101763,25593,19587,4,181708,269937
2025-02-21 18:10:36.175,101342,25631,19424,4,180980,268834
2025-02-21 18:10:36.198,102339,25808,19630,5,182074,270696
2025-02-21 18:10:36.316,103542,26061,19965,3,184500,273257
2025-02-21 18:10:36.529,103508,25897,19933,3,184943,273010
2025-02-21 18:10:36.531,102322,25622,19560,3,183097,269948
2025-02-21 18:10:36.678,102501,25794,19778,4,184219,271646
2025-02-21 18:10:36.699,102289,25842,20038,4,184972,272645
2025-02-21 18:10:36.866,101958,25708,19957,4,184981,272322
2025-02-21 18:10:36.891,101936,25637,19717,4,184228,271343
2025-02-21 18:10:37.032,102455,25755,19797,4,184942,272774
2025-02-21 18:10:37.236,103546,25916,19940,4,185629,274290
2025-02-21 18:10:37.240,103984,25933,19928,4,185985,274305
2025-02-21 18:10:37.471,102661,25293,19259,4,183093,270519
2025-02-21 18:10:37.473,102699,25453,19528,5,183851,272055
2025-02-21 18:10:37.495,102864,25551,19810,4,185348,273857
2025-02-21 18:10:37.661,102078,25488,19708,3,184701,272732
2025-02-21 18:10:37.686,101939,25384,19447,3,183508,271297
2025-02-21 18:10:37.892,102986,25561,19733,3,184926,273633
2025-02-21 18:10:37.895,104265,25830,19981,3,186097,275479
2025-02-21 18:10:38.092,104453,25925,19964,4,186130,275412
2025-02-21 18:10:38.095,103013,25638,19553,3,183680,271552
2025-02-21 18:10:38.256,104646,26455,20967,4,186982,276129
2025-02-21 18:10:38.291,105557,26782,21996,4,187651,277877
2025-02-21 18:10:38.498,106757,27008,22348,4,188437,279966
2025-02-21 18:10:38.502,106831,27066,22425,4,188425,279802
2025-02-21 18:10:38.689,108534,27948,23504,4,193609,285593
2025-02-21 18:10:38.692,110003,28605,24106,4,198850,291721
2025-02-21 18:10:38.905,108596,28123,23146,4,198178,290496
2025-02-21 18:10:38.908,105530,26849,21303,4,191017,281457
2025-02-21 18:10:39.134,106367,27220,21635,3,192854,284020
2025-02-21 18:10:39.136,105592,26830,21221,3,191946,283043
2025-02-21 18:10:39.310,104530,26471,20604,3,190146,280692
2025-02-21 18:10:39.313,102954,25776,19509,5,185868,275147
2025-02-21 18:10:39.454,103678,25661,19469,4,185350,274909
2025-02-21 18:10:39.479,105328,26195,20010,4,187398,277767
2025-02-21 18:10:39.632,104949,25832,19788,4,186467,276347
2025-02-21 18:10:39.810,102961,25095,19038,4,182159,270462
2025-02-21 18:10:39.813,103750,25493,19600,4,184167,273131
2025-02-21 18:10:40.025,104345,25744,19977,4,185522,275409
2025-02-21 18:10:40.029,103659,25588,19698,5,184492,273688
2025-02-21 18:10:40.184,103193,25308,19284,4,183097,271332
2025-02-21 18:10:40.187,104188,25620,19713,4,185056,274258
2025-02-21 18:10:40.380,105167,25926,20026,4,186198,276196
2025-02-21 18:10:40.383,105180,26023,20150,4,186099,275689
2025-02-21 18:10:40.544,103352,25249,19353,3,181253,270665
2025-02-21 18:10:40.579,104003,25458,19802,4,183160,273503
2025-02-21 18:10:40.794,104228,25584,19976,4,184580,275014
2025-02-21 18:10:40.796,103692,25548,19741,4,183325,273310
2025-02-21 18:10:40.947,103232,25394,19411,4,181873,271250
2025-02-21 18:10:40.979,104273,25603,19845,3,184303,274363
2025-02-21 18:10:41.145,105336,25874,20168,4,185765,276311
2025-02-21 18:10:41.183,105023,25723,20020,4,184946,274655
2025-02-21 18:10:41.359,103357,25121,19326,3,180351,269656
2025-02-21 18:10:41.375,103842,25310,19701,4,182255,272343
2025-02-21 18:10:41.558,104428,25352,19860,3,183832,273992
2025-02-21 18:10:41.576,104007,25299,19580,5,182864,272556
2025-02-21 18:10:41.708,103815,25384,19402,4,181694,271299
2025-02-21 18:10:41.897,104866,25837,19959,4,184362,275056
2025-02-21 18:10:41.900,105791,25935,20195,4,185493,276875
2025-02-21 18:10:42.053,105305,25663,20040,5,184395,274934
2025-02-21 18:10:42.079,103506,25008,19313,4,180443,269685
2025-02-21 18:10:42.234,103939,25344,19836,4,182396,272292
2025-02-21 18:10:42.271,104403,25490,20016,3,183714,273941
2025-02-21 18:10:42.464,103729,25144,19537,4,182219,271696
2025-02-21 18:10:42.471,103262,24972,19205,4,180473,269238
2025-02-21 18:10:42.645,104499,25484,19831,4,183033,272945
2025-02-21 18:10:42.671,105547,25830,20173,5,184320,274861
2025-02-21 18:10:42.799,104772,25535,19844,3,183110,272885
2025-02-21 18:10:42.996,103137,24899,19163,4,180066,268591
2025-02-21 18:10:42.999,103631,25126,19589,4,181753,270824
2025-02-21 18:10:43.225,104549,25479,20077,3,183637,273572
2025-02-21 18:10:43.227,103874,25460,19894,4,183300,272911
2025-02-21 18:10:43.267,102819,24874,19228,5,180939,268805
2025-02-21 18:10:43.413,103935,25212,19741,4,183293,271971
2025-02-21 18:10:43.569,105434,25686,20231,4,185197,274640
2025-02-21 18:10:43.573,105161,25833,20243,5,184962,274320
2025-02-21 18:10:43.771,103356,25337,19597,4,180967,270144
2025-02-21 18:10:43.774,103401,25212,19737,3,181115,271142
2025-02-21 18:10:43.923,103895,25220,19916,3,182942,273039
2025-02-21 18:10:43.971,103616,25260,19767,4,182485,272417
2025-02-21 18:10:44.108,102936,25131,19357,3,180317,269668
2025-02-21 18:10:44.327,103697,25399,19812,3,182324,272294
2025-02-21 18:10:44.329,104770,25485,20029,3,183966,274186
2025-02-21 18:10:44.364,104954,25753,20218,3,184631,274940
2025-02-21 18:10:44.506,102997,25042,19366,4,180240,269776
2025-02-21 18:10:44.657,102772,25120,19738,4,180141,270430
2025-02-21 18:10:44.667,103143,25219,20238,4,182551,273615
2025-02-21 18:10:44.925,103163,25218,20055,4,182692,273273
2025-02-21 18:10:44.927,102483,24897,19433,3,180424,269629
2025-02-21 18:10:44.960,102826,25204,19763,4,182233,271379
2025-02-21 18:10:45.072,104149,25341,19782,4,183649,272991
2025-02-21 18:10:45.260,104681,25332,19724,4,183901,273551
2025-02-21 18:10:45.263,103246,24782,18975,4,180765,269154
2025-02-21 18:10:45.412,103538,24908,19118,3,180954,269595
2025-02-21 18:10:45.601,104263,25141,19544,3,183120,272588
2025-02-21 18:10:45.604,104118,25038,19545,4,183225,272586
2025-02-21 18:10:45.751,103048,24599,19006,4,180821,269434
2025-02-21 18:10:45.764,103014,24574,19008,3,180790,269499
2025-02-21 18:10:46.010,103892,24645,19170,4,181563,270483
2025-02-21 18:10:46.013,104452,25017,19493,4,182887,272143
2025-02-21 18:10:46.056,103142,24595,19067,4,181311,269644
2025-02-21 18:10:46.172,102495,24274,18860,4,179725,267531
2025-02-21 18:10:46.369,103033,24395,19192,4,181302,269699
2025-02-21 18:10:46.372,103344,24694,19471,4,182204,270870
2025-02-21 18:10:46.656,101144,23651,18339,3,178279,265582
2025-02-21 18:10:46.659,100428,22995,17811,3,175904,262200
2025-02-21 18:10:46.661,102366,23699,18608,3,178640,265932
2025-02-21 18:10:46.851,103604,24571,19363,3,180925,269364
2025-02-21 18:10:46.854,102563,24494,19141,4,179789,267830
2025-02-21 18:10:47.008,101425,23808,18635,4,176186,264331
2025-02-21 18:10:47.052,102177,24025,19218,3,178620,267580
2025-02-21 18:10:47.201,102968,24377,19591,4,180812,269617
2025-02-21 18:10:47.355,102068,24233,19130,5,179313,267295
2025-02-21 18:10:47.357,101802,24306,19055,3,179131,266104
2025-02-21 18:10:47.538,103147,24416,19435,4,181243,268686
2025-02-21 18:10:47.556,104211,24723,19713,4,182889,270994
2025-02-21 18:10:47.746,103634,24626,19469,5,182168,269796
2025-02-21 18:10:47.748,102348,24196,19009,4,179204,265807
2025-02-21 18:10:47.932,102961,24465,19501,4,181535,268935
2025-02-21 18:10:47.948,103613,24520,19764,3,182934,270915
2025-02-21 18:10:48.084,102710,24326,19407,3,181569,268780
2025-02-21 18:10:48.268,102573,24412,19402,3,181417,267914
2025-02-21 18:10:48.271,103547,24718,19805,4,183476,270606
2025-02-21 18:10:48.422,104527,24895,20026,4,185088,272643
2025-02-21 18:10:48.452,104127,24705,19957,4,184709,271376
2025-02-21 18:10:48.608,102784,24227,19464,3,180993,267764
2025-02-21 18:10:48.643,103546,24494,19912,4,182751,270468
2025-02-21 18:10:48.769,103803,24710,20076,4,183825,271950
2025-02-21 18:10:48.956,102758,24209,19557,4,181782,268852
2025-02-21 18:10:48.959,102647,24194,19522,4,181891,268255
2025-02-21 18:10:49.108,103782,24516,19916,2,183922,270959
2025-02-21 18:10:49.148,104683,25010,20294,5,185431,273219
2025-02-21 18:10:49.300,103696,24594,19821,3,183475,270276
2025-02-21 18:10:49.348,102468,23828,19289,4,179705,266646
2025-02-21 18:10:49.498,103220,24140,19799,4,182177,270110
2025-02-21 18:10:49.541,103737,24453,20005,4,183369,271673
2025-02-21 18:10:49.684,103040,24392,19650,4,181950,269568
2025-02-21 18:10:49.733,102791,24320,19498,3,181673,268250
2025-02-21 18:10:49.919,103697,24363,19819,4,183742,270719
2025-02-21 18:10:49.933,104672,24777,20171,4,185168,272896
2025-02-21 18:10:50.093,103882,24616,19855,5,183581,270525
2025-02-21 18:10:50.134,102919,24278,19548,4,180539,267608
2025-02-21 18:10:50.244,103330,24317,19909,4,182412,270197
2025-02-21 18:10:50.427,103759,24388,20042,4,183586,271602
2025-02-21 18:10:50.437,102914,24257,19657,4,181687,268923
2025-02-21 18:10:50.578,102856,24316,19674,4,181481,268386
2025-02-21 18:10:50.772,104117,24696,20110,4,183808,271422
2025-02-21 18:10:50.774,104804,24741,20200,4,184890,272844
2025-02-21 18:10:50.923,103983,24421,19887,4,183238,270358
2025-02-21 18:10:50.927,102849,24003,19440,4,179911,267130
2025-02-21 18:10:51.163,103560,24490,20144,2,182505,270832
2025-02-21 18:10:51.165,103810,24769,20429,4,183857,272549
2025-02-21 18:10:51.311,103352,24345,19919,5,182433,270264
2025-02-21 18:10:51.321,102943,24253,19744,4,182030,268771
2025-02-21 18:10:51.498,104147,24720,20299,3,184520,271864
2025-02-21 18:10:51.525,104841,25107,20507,3,185621,273701
2025-02-21 18:10:51.723,104090,24700,20145,3,183975,270983
2025-02-21 18:10:51.726,102712,23982,19544,4,180428,267133
2025-02-21 18:10:51.921,103536,24411,20156,4,183106,270719
2025-02-21 18:10:51.924,104141,24916,20508,6,185007,272901
2025-02-21 18:10:52.070,103172,24567,19878,4,182489,269310
2025-02-21 18:10:52.253,103022,24334,19810,3,182797,268719
2025-02-21 18:10:52.255,104090,24538,20221,3,185003,271364
2025-02-21 18:10:52.402,104804,24928,20479,3,186160,273165
2025-02-21 18:10:52.420,103853,24699,20182,3,183469,270145
2025-02-21 18:10:52.602,103054,24513,19983,4,181014,268322
2025-02-21 18:10:52.621,103373,24578,20400,3,183514,271270
2025-02-21 18:10:52.770,103471,24689,20482,3,184404,272230
2025-02-21 18:10:53.045,102937,24540,19949,3,183019,269704
2025-02-21 18:10:53.048,102546,24405,19642,3,182472,267910
2025-02-21 18:10:53.050,103334,24599,19966,4,184335,270171
2025-02-21 18:10:53.303,104321,24724,20170,4,185538,272075
2025-02-21 18:10:53.306,103930,24607,20061,4,184070,270420
2025-02-21 18:10:53.310,102192,23951,19166,4,179118,265655
2025-02-21 18:10:53.627,102619,24269,19551,4,181353,268520
2025-02-21 18:10:53.630,103209,24377,19617,5,182767,270342
2025-02-21 18:10:53.632,102236,23750,18948,4,180622,266787
2025-02-21 18:10:53.793,102009,23792,18844,3,180442,265392
2025-02-21 18:10:53.808,103371,24317,19439,5,183053,268889
2025-02-21 18:10:53.979,104402,24835,19850,3,184634,271421
2025-02-21 18:10:54.008,103505,24349,19375,4,182624,268475
2025-02-21 18:10:54.134,102125,23676,18815,4,178527,264619
2025-02-21 18:10:54.318,102619,23967,19301,4,180662,267578
2025-02-21 18:10:54.320,103153,24259,19524,4,182028,269308
2025-02-21 18:10:54.468,102202,24089,19084,3,180277,266731
2025-02-21 18:10:54.505,101937,23756,18866,3,179788,265179
2025-02-21 18:10:54.711,103051,24047,19381,4,182095,268193
2025-02-21 18:10:54.713,104368,24633,19806,3,184241,271206
2025-02-21 18:10:54.861,103746,24522,19536,5,182956,269090
2025-02-21 18:10:54.905,102203,23913,18912,3,178624,264825
2025-02-21 18:10:55.047,102350,23767,19120,4,179850,266628
2025-02-21 18:10:55.256,102968,24013,19415,3,181777,268971
2025-02-21 18:10:55.259,102088,23948,19053,3,180572,266874
2025-02-21 18:10:55.297,101780,24143,19084,4,180155,265592
2025-02-21 18:10:55.435,102693,24679,19869,4,183297,269526
2025-02-21 18:10:55.589,103783,24701,20121,4,184798,271581
2025-02-21 18:10:55.600,103718,24588,19837,4,184675,270600
2025-02-21 18:10:55.777,102169,24041,19104,3,180307,265827
2025-02-21 18:10:55.801,102920,24324,19460,4,181790,268349
2025-02-21 18:10:55.931,103082,24101,19410,3,182525,268986
2025-02-21 18:10:56.114,102248,23769,19029,4,181314,266960
2025-02-21 18:10:56.116,101696,23764,18781,4,179970,265324
2025-02-21 18:10:56.314,102692,24011,19075,4,181474,267345
2025-02-21 18:10:56.317,103641,24351,19330,3,182682,269434
2025-02-21 18:10:56.529,103220,23960,19151,4,182062,268014
2025-02-21 18:10:56.533,101634,23330,18585,4,178517,263390
2025-02-21 18:10:56.740,102058,23668,19063,3,180005,265770
2025-02-21 18:10:56.744,102412,23956,19311,3,181420,267623
2025-02-21 18:10:56.943,101948,23915,19049,4,180472,266248
2025-02-21 18:10:56.945,101122,23455,18623,4,178586,263595
2025-02-21 18:10:57.189,102125,23733,18963,4,180226,265950
2025-02-21 18:10:57.193,103441,24173,19247,3,181659,268247
2025-02-21 18:10:57.197,103297,24336,19292,3,181363,267630
2025-02-21 18:10:57.451,101682,23517,18589,4,177785,262655
2025-02-21 18:10:57.455,101642,23280,18682,4,178244,263543
2025-02-21 18:10:57.493,102330,23597,18937,4,180179,265997
