Timestamp,PPG1,PPG2,PPG3,PPG4,PPG5,PPG6
2025-02-21 17:55:29.044,56708,19466,11301,4,197858,262826
2025-02-21 17:55:30.082,56753,19557,11350,4,197978,263001
2025-02-21 17:55:32.804,56791,19660,11407,4,198091,263199
2025-02-21 17:55:32.819,56784,19693,11429,3,198071,263233
2025-02-21 17:55:32.857,56705,19465,11343,3,197862,262910
2025-02-21 17:55:33.723,56748,19444,11344,4,197890,262981
2025-02-21 17:55:34.035,56755,19466,11359,4,197912,263017
2025-02-21 17:55:34.038,56768,19509,11376,3,197943,263080
2025-02-21 17:55:34.040,56787,19584,11406,4,197967,263171
2025-02-21 17:55:34.043,56803,19655,11436,4,197995,263266
2025-02-21 17:55:34.045,56736,19511,11385,2,197784,263003
2025-02-21 17:55:34.047,56763,19375,11341,4,197784,262945
2025-02-21 17:55:34.050,56817,19403,11364,4,197845,263075
2025-02-21 17:55:34.052,56827,19441,11389,3,197865,263145
2025-02-21 17:55:34.054,56839,19512,11422,3,197904,263236
2025-02-21 17:55:34.055,56844,19588,11453,4,197936,263316
2025-02-21 17:55:34.058,56821,19620,11464,4,197888,263332
2025-02-21 17:55:34.064,56655,19361,11344,4,197534,262824
2025-02-21 17:55:34.066,56614,19285,11294,3,197440,262690
2025-02-21 17:55:34.068,56597,19299,11290,4,197407,262649
2025-02-21 17:55:34.070,56622,19354,11312,4,197469,262756
2025-02-21 17:55:34.071,56662,19452,11359,3,197568,262928
2025-02-21 17:55:34.072,56682,19547,11400,4,197633,263071
2025-02-21 17:55:34.074,56610,19485,11374,4,197465,262889
2025-02-21 17:55:34.075,56537,19288,11290,3,197308,262608
2025-02-21 17:55:34.077,56549,19299,11293,4,197316,262651
2025-02-21 17:55:34.078,56520,19312,11296,4,197277,262604
2025-02-21 17:55:34.080,56517,19370,11317,5,197306,262674
2025-02-21 17:55:34.082,56530,19446,11349,4,197338,262754
2025-02-21 17:55:34.084,56537,19506,11377,4,197347,262828
2025-02-21 17:55:34.192,56463,19314,11310,4,197144,262523
2025-02-21 17:55:34.194,56518,19276,11307,3,197223,262599
2025-02-21 17:55:34.196,56574,19342,11350,3,197311,262752
2025-02-21 17:55:34.197,56613,19415,11395,4,197401,262893
2025-02-21 17:55:34.199,56663,19523,11453,4,197510,263086
2025-02-21 17:55:34.201,56713,19633,11513,3,197620,263278
2025-02-21 17:55:34.202,56707,19648,11536,2,197587,263294
2025-02-21 17:55:34.204,56656,19457,11471,3,197444,263072
2025-02-21 17:55:34.205,56687,19469,11483,3,197492,263169
2025-02-21 17:55:34.207,56669,19505,11498,4,197452,263162
2025-02-21 17:55:34.209,56645,19556,11513,3,197444,263174
2025-02-21 17:55:34.210,56643,19641,11539,5,197454,263239
2025-02-21 17:55:34.212,56655,19738,11576,4,197478,263345
2025-02-21 17:55:34.214,56587,19665,11548,3,197303,263137
2025-02-21 17:55:34.216,56572,19536,11500,3,197268,263032
2025-02-21 17:55:34.218,56584,19580,11520,4,197305,263108
2025-02-21 17:55:34.220,56565,19608,11527,3,197291,263118
2025-02-21 17:55:34.222,56549,19669,11539,4,197267,263139
2025-02-21 17:55:34.224,56549,19749,11566,3,197279,263189
2025-02-21 17:55:34.226,56568,19827,11597,4,197311,263268
2025-02-21 17:55:34.228,56499,19648,11536,4,197112,262989
2025-02-21 17:55:34.230,56566,19645,11544,3,197251,263155
2025-02-21 17:55:34.234,56604,19711,11582,3,197328,263283
2025-02-21 17:55:34.237,56634,19771,11617,4,197388,263381
2025-02-21 17:55:34.348,56667,19875,11667,4,197460,263528
2025-02-21 17:55:34.350,56684,19972,11707,4,197495,263652
2025-02-21 17:55:34.352,56647,19968,11707,4,197394,263579
2025-02-21 17:55:34.354,56573,19779,11624,4,197212,263302
2025-02-21 17:55:34.356,56576,19798,11617,4,197234,263354
2025-02-21 17:55:34.358,56603,19837,11630,4,197236,263385
2025-02-21 17:55:34.360,56657,19923,11670,5,197335,263541
2025-02-21 17:55:34.362,56657,20014,11705,5,197344,263635
2025-02-21 17:55:34.363,56633,20067,11718,4,197274,263616
2025-02-21 17:55:34.364,56565,19880,11643,4,197037,263302
2025-02-21 17:55:34.366,56605,19851,11626,4,197145,263411
2025-02-21 17:55:34.368,56624,19890,11639,4,197196,263452
2025-02-21 17:55:34.370,56661,19941,11660,4,197278,263562
2025-02-21 17:55:34.372,56696,20031,11696,3,197370,263714
2025-02-21 17:55:34.373,56732,20121,11736,3,197431,263843
2025-02-21 17:55:34.378,56700,20025,11704,4,197283,263696
2025-02-21 17:55:34.380,56715,19893,11651,4,197248,263661
2025-02-21 17:55:34.381,56747,19923,11658,2,197325,263746
2025-02-21 17:55:34.480,56761,19954,11668,3,197367,263785
2025-02-21 17:55:34.541,56795,20033,11696,3,197450,263907
2025-02-21 17:55:34.696,56802,20114,11724,3,197457,263975
2025-02-21 17:55:34.722,56738,20094,11700,3,197296,263847
2025-02-21 17:55:34.847,56644,19880,11592,4,197017,263509
2025-02-21 17:55:35.058,56681,19887,11582,4,197065,263609
2025-02-21 17:55:35.060,56696,19911,11591,4,197128,263649
2025-02-21 17:55:35.191,56710,19967,11613,3,197190,263737
2025-02-21 17:55:35.214,56714,20039,11641,4,197199,263798
2025-02-21 17:55:35.336,56691,20062,11646,3,197136,263775
2025-02-21 17:55:35.465,56624,19838,11560,3,196957,263465
2025-02-21 17:55:35.612,56674,19819,11554,3,197065,263593
2025-02-21 17:55:35.617,56690,19843,11570,3,197096,263635
2025-02-21 17:55:35.790,56704,19881,11591,3,197133,263690
2025-02-21 17:55:35.810,56711,19946,11620,4,197155,263742
2025-02-21 17:55:35.944,56735,20007,11649,5,197170,263809
2025-02-21 17:55:36.074,56705,19826,11596,3,197052,263590
2025-02-21 17:55:36.110,56794,19772,11597,3,197206,263765
2025-02-21 17:55:36.223,56831,19809,11628,4,197235,263881
2025-02-21 17:55:36.345,56860,19857,11661,4,197249,263965
2025-02-21 17:55:36.498,56902,19943,11705,3,197309,264097
2025-02-21 17:55:36.513,56938,20033,11752,4,197378,264230
2025-02-21 17:55:36.674,56888,19950,11728,4,197231,264047
2025-02-21 17:55:36.714,56878,19780,11670,3,197196,263925
2025-02-21 17:55:36.822,56897,19791,11675,5,197233,263986
2025-02-21 17:55:36.945,56892,19805,11683,4,197188,263987
2025-02-21 17:55:37.124,56892,19860,11705,4,197167,264009
2025-02-21 17:55:37.127,56882,19919,11725,4,197133,264022
2025-02-21 17:55:37.268,56874,19932,11732,3,197064,263986
2025-02-21 17:55:37.306,56870,19723,11669,3,196981,263787
2025-02-21 17:55:37.511,56941,19710,11678,4,197115,263930
2025-02-21 17:55:37.513,56967,19743,11702,4,197110,263978
2025-02-21 17:55:37.702,57007,19804,11732,4,197075,264038
2025-02-21 17:55:37.709,57125,19911,11793,4,197130,264200
2025-02-21 17:55:37.988,57341,20048,11881,2,197350,264528
2025-02-21 17:55:37.990,57430,19966,11885,4,197348,264489
2025-02-21 17:55:38.001,57536,19887,11888,3,197505,264560
2025-02-21 17:55:38.231,57566,19927,11917,4,197572,264663
2025-02-21 17:55:38.233,57567,19963,11946,4,197552,264669
2025-02-21 17:55:38.439,57562,20062,11996,4,197672,264858
2025-02-21 17:55:38.442,57576,20174,12047,3,197760,265036
2025-02-21 17:55:38.573,57620,20251,12082,4,197786,265128
2025-02-21 17:55:38.606,57501,20086,12021,4,197582,264787
2025-02-21 17:55:38.750,57555,20104,12035,3,197642,264884
2025-02-21 17:55:38.955,57383,20106,12007,4,197409,264623
2025-02-21 17:55:38.957,57307,20123,11993,3,197295,264474
2025-02-21 17:55:39.113,57440,20287,12091,3,197731,265057
2025-02-21 17:55:39.116,57439,20457,12211,4,198185,265708
2025-02-21 17:55:39.334,57264,20413,12229,4,198221,265745
2025-02-21 17:55:39.336,56960,20328,12225,4,198295,265807
2025-02-21 17:55:39.487,56846,20436,12303,3,198624,266349
2025-02-21 17:55:39.497,56792,20515,12356,4,198763,266692
2025-02-21 17:55:39.640,56856,20658,12444,3,199030,267194
2025-02-21 17:55:39.793,57011,20832,12545,4,199342,267667
2025-02-21 17:55:39.796,56864,20857,12539,4,199256,267563
2025-02-21 17:55:39.933,56379,20511,12325,4,198420,266429
2025-02-21 17:55:40.105,56377,20482,12272,4,198267,266209
2025-02-21 17:55:40.107,56534,20551,12286,4,198335,266296
2025-02-21 17:55:40.280,56299,20502,12205,3,198079,266023
2025-02-21 17:55:40.292,56142,20417,12084,3,197871,265453
2025-02-21 17:55:40.435,56706,20652,12256,4,198548,266396
2025-02-21 17:55:40.565,56292,20417,12129,3,198156,265810
2025-02-21 17:55:40.593,55755,20185,11954,3,197616,264992
2025-02-21 17:55:40.730,56101,20326,12038,3,198035,265352
2025-02-21 17:55:40.860,56148,20491,12130,3,198669,266317
2025-02-21 17:55:40.893,55607,20378,11979,5,198236,265690
2025-02-21 17:55:41.074,55793,20496,12037,3,198546,266110
2025-02-21 17:55:41.093,55809,20363,11992,3,198433,266013
2025-02-21 17:55:41.209,55789,20331,11965,4,198397,265946
2025-02-21 17:55:41.380,55429,20240,11850,4,197911,265256
2025-02-21 17:55:41.396,55440,20259,11847,4,197899,265182
2025-02-21 17:55:41.528,55497,20335,11856,4,198000,265418
2025-02-21 17:55:41.693,55270,20306,11805,4,197685,265014
2025-02-21 17:55:41.695,55213,20115,11730,3,197406,264575
2025-02-21 17:55:41.935,55230,20079,11709,4,197471,264645
2025-02-21 17:55:41.937,55155,20086,11673,4,197239,264474
2025-02-21 17:55:42.132,55036,20008,11605,4,196787,263875
2025-02-21 17:55:42.134,54996,20025,11588,2,196663,263646
2025-02-21 17:55:42.290,54942,20069,11586,3,196707,263742
2025-02-21 17:55:42.293,54885,19884,11499,3,196600,263496
2025-02-21 17:55:42.469,54900,19832,11445,3,196545,263496
2025-02-21 17:55:42.481,54858,19813,11409,4,196371,263211
2025-02-21 17:55:42.607,54992,19881,11440,4,196549,263457
2025-02-21 17:55:42.825,55008,19966,11463,4,196519,263453
2025-02-21 17:55:42.828,55107,20058,11517,3,196594,263601
2025-02-21 17:55:42.959,55235,19928,11495,4,196593,263538
2025-02-21 17:55:42.984,55239,19959,11507,4,196660,263638
2025-02-21 17:55:43.135,55266,20010,11535,4,196619,263672
2025-02-21 17:55:43.282,55394,20066,11574,3,196639,263749
2025-02-21 17:55:43.285,55543,20160,11622,4,196624,263858
2025-02-21 17:55:43.450,55573,20080,11582,3,196180,263304
2025-02-21 17:55:43.485,55805,19982,11592,3,196236,263288
2025-02-21 17:55:43.657,55991,20108,11687,3,196590,263829
2025-02-21 17:55:43.676,56047,20194,11768,3,196751,264092
2025-02-21 17:55:43.848,56114,20294,11843,4,196839,264267
2025-02-21 17:55:43.881,56179,20418,11922,4,196957,264468
2025-02-21 17:55:44.005,56076,20342,11910,4,196764,264245
2025-02-21 17:55:44.193,55965,20192,11859,4,196585,263945
2025-02-21 17:55:44.196,56023,20252,11892,4,196670,264086
2025-02-21 17:55:44.327,56161,20308,11937,3,196822,264337
2025-02-21 17:55:44.543,56097,20342,11936,5,196801,264366
2025-02-21 17:55:44.545,56097,20406,11955,3,196761,264310
2025-02-21 17:55:44.580,56292,20379,11998,4,196924,264579
2025-02-21 17:55:44.684,56180,20287,11975,4,196790,264357
2025-02-21 17:55:44.830,56194,20356,12014,3,196749,264359
2025-02-21 17:55:44.969,56227,20395,12043,4,196721,264384
2025-02-21 17:55:44.984,56220,20456,12064,4,196652,264390
2025-02-21 17:55:45.125,56221,20528,12089,4,196591,264399
2025-02-21 17:55:45.263,56150,20408,12059,4,196342,264066
2025-02-21 17:55:45.285,56145,20391,12057,4,196320,264084
2025-02-21 17:55:45.419,56119,20430,12065,3,196243,264044
2025-02-21 17:55:45.543,56105,20437,12059,2,196147,263982
2025-02-21 17:55:45.588,56113,20482,12063,3,196080,263938
2025-02-21 17:55:45.775,56193,20540,12086,3,196063,263989
2025-02-21 17:55:45.777,56266,20583,12107,3,196126,264123
2025-02-21 17:55:45.917,56188,20560,12063,4,195719,263677
2025-02-21 17:55:46.087,56448,20653,12109,4,195783,263761
2025-02-21 17:55:46.090,56500,20727,12145,4,195815,263894
2025-02-21 17:55:46.293,56551,20753,12149,4,195574,263602
2025-02-21 17:55:46.295,56202,20549,12063,4,195176,262950
2025-02-21 17:55:46.466,56235,20407,12053,2,195309,262891
2025-02-21 17:55:46.472,56531,20586,12208,4,196142,264069
2025-02-21 17:55:46.597,56151,20549,12199,4,196400,264269
2025-02-21 17:55:46.767,56131,20708,12302,5,196976,265050
2025-02-21 17:55:46.772,56079,20832,12379,3,197437,265744
2025-02-21 17:55:46.902,56076,20747,12432,4,197792,266096
2025-02-21 17:55:47.066,56829,20975,12700,4,199284,268089
2025-02-21 17:55:47.068,57350,21276,12957,4,200092,269271
2025-02-21 17:55:47.196,57334,21402,13059,4,200435,269791
2025-02-21 17:55:47.358,57027,21353,12953,4,200112,269383
2025-02-21 17:55:47.368,57103,21350,12936,3,199968,269365
2025-02-21 17:55:47.536,56728,21001,12755,3,199266,268348
2025-02-21 17:55:47.568,56846,20934,12728,3,198964,268022
2025-02-21 17:55:47.708,56717,20860,12665,3,198625,267618
2025-02-21 17:55:47.850,56618,20839,12632,5,198352,267279
2025-02-21 17:55:47.868,56694,20884,12637,4,198239,267251
2025-02-21 17:55:48.080,56769,20804,12629,4,198186,267260
2025-02-21 17:55:48.082,56738,20650,12580,3,198134,267242
2025-02-21 17:55:48.213,56784,20658,12582,4,198156,267320
2025-02-21 17:55:48.259,56815,20693,12601,4,198248,267507
2025-02-21 17:55:48.381,56752,20722,12594,3,198115,267404
2025-02-21 17:55:48.525,56775,20796,12621,4,198099,267412
2025-02-21 17:55:48.560,56777,20618,12574,4,197962,267253
2025-02-21 17:55:48.700,56799,20453,12522,4,197950,267239
2025-02-21 17:55:48.837,56865,20454,12521,3,198077,267356
2025-02-21 17:55:48.863,56886,20489,12536,3,198161,267445
2025-02-21 17:55:49.050,56873,20553,12554,4,198156,267485
2025-02-21 17:55:49.063,56878,20621,12573,3,198122,267508
2025-02-21 17:55:49.181,56829,20478,12526,3,197915,267209
2025-02-21 17:55:49.348,56883,20328,12486,4,197937,267203
2025-02-21 17:55:49.355,56870,20338,12483,3,198000,267287
2025-02-21 17:55:49.495,56815,20365,12478,3,197904,267197
2025-02-21 17:55:49.669,56783,20419,12477,4,197847,267174
2025-02-21 17:55:49.671,56711,20471,12471,3,197709,267041
2025-02-21 17:55:49.806,56702,20498,12470,4,197628,266981
2025-02-21 17:55:49.970,56613,20269,12386,4,197396,266629
2025-02-21 17:55:49.972,56656,20227,12374,4,197482,266763
2025-02-21 17:55:50.104,56620,20241,12367,4,197439,266739
2025-02-21 17:55:50.269,56660,20308,12392,5,197476,266842
2025-02-21 17:55:50.271,56591,20379,12401,4,197430,266788
2025-02-21 17:55:50.402,56621,20488,12448,4,197463,266894
2025-02-21 17:55:50.577,56567,20502,12445,4,197348,266806
2025-02-21 17:55:50.580,56587,20315,12405,3,197253,266608
2025-02-21 17:55:50.717,56626,20278,12401,5,197340,266702
2025-02-21 17:55:50.752,56686,20340,12433,4,197472,266851
2025-02-21 17:55:50.938,56689,20426,12465,3,197576,266988
2025-02-21 17:55:50.952,56633,20512,12485,4,197547,266986
2025-02-21 17:55:51.075,56627,20606,12511,4,197534,267014
2025-02-21 17:55:51.261,56621,20690,12537,3,197500,267043
2025-02-21 17:55:51.264,56585,20567,12508,4,197300,266762
2025-02-21 17:55:51.463,56670,20482,12506,3,197405,266874
2025-02-21 17:55:51.465,56659,20507,12513,4,197463,266943
2025-02-21 17:55:51.634,56646,20559,12523,4,197433,266948
2025-02-21 17:55:51.655,56638,20642,12541,5,197432,267017
2025-02-21 17:55:51.788,56576,20715,12547,4,197334,266953
2025-02-21 17:55:51.979,56554,20785,12558,4,197222,266907
2025-02-21 17:55:51.981,56569,20821,12565,3,197131,266867
2025-02-21 17:55:52.110,56523,20657,12523,3,196973,266611
2025-02-21 17:55:52.148,56554,20636,12516,3,196989,266665
2025-02-21 17:55:52.301,56469,20636,12494,4,196882,266571
2025-02-21 17:55:52.428,56517,20683,12509,4,196868,266596
2025-02-21 17:55:52.451,56550,20746,12518,5,196944,266759
2025-02-21 17:55:52.682,56486,20809,12528,4,196851,266672
2025-02-21 17:55:52.685,56621,20919,12583,4,197015,266930
2025-02-21 17:55:52.819,56573,20842,12572,3,196889,266777
2025-02-21 17:55:52.852,56682,20745,12572,3,197013,266894
2025-02-21 17:55:52.998,56699,20761,12580,3,197129,267055
2025-02-21 17:55:53.043,56746,20821,12609,3,197249,267245
2025-02-21 17:55:53.188,56663,20859,12598,3,197227,267239
2025-02-21 17:55:53.349,56720,20961,12643,3,197278,267391
2025-02-21 17:55:53.351,56675,20997,12634,4,197124,267299
2025-02-21 17:55:53.481,56724,21023,12643,4,197032,267217
2025-02-21 17:55:53.652,56893,20893,12619,5,197131,267342
2025-02-21 17:55:53.654,56818,20871,12595,3,197142,267402
2025-02-21 17:55:53.790,56799,20871,12568,3,197107,267331
2025-02-21 17:55:53.962,56984,20906,12569,2,197231,267636
2025-02-21 17:55:53.964,56751,20870,12491,4,196915,267237
2025-02-21 17:55:54.096,56744,20929,12499,4,196857,267170
2025-02-21 17:55:54.127,56821,20989,12502,3,196854,267299
2025-02-21 17:55:54.346,56643,20802,12399,3,196407,266719
2025-02-21 17:55:54.348,56634,20713,12360,4,196278,266559
2025-02-21 17:55:54.484,56591,20692,12329,3,196184,266472
2025-02-21 17:55:54.531,56645,20655,12313,3,196113,266462
2025-02-21 17:55:54.655,56600,20451,12126,3,195134,265249
2025-02-21 17:55:54.847,56802,20409,12032,5,194529,264387
2025-02-21 17:55:54.849,56755,20343,11851,3,193853,263722
2025-02-21 17:55:55.016,56820,20115,11649,4,193303,263074
2025-02-21 17:55:55.031,56790,19787,11171,4,193779,263759
2025-02-21 17:55:55.160,59278,19918,11129,4,197364,268172
2025-02-21 17:55:55.330,61014,20062,11153,4,199666,271478
2025-02-21 17:55:55.332,61680,20316,11256,4,201974,273973
2025-02-21 17:55:55.475,65529,20579,11269,3,207006,279884
2025-02-21 17:55:55.524,67972,20898,11457,4,210402,283996
2025-02-21 17:55:55.695,69159,21132,11682,3,212311,286291
2025-02-21 17:55:55.727,69959,21381,11877,3,213449,287704
2025-02-21 17:55:55.873,69762,21465,12020,5,214344,288714
2025-02-21 17:55:56.089,69566,21557,12161,4,215404,289933
2025-02-21 17:55:56.091,69950,21575,12170,4,216168,290806
2025-02-21 17:55:56.119,70488,21689,12292,3,217075,291693
2025-02-21 17:55:56.226,70788,21753,12507,3,218038,292524
2025-02-21 17:55:56.410,72922,22205,12887,4,219033,293623
2025-02-21 17:55:56.419,73649,23603,14002,3,217646,293968
2025-02-21 17:55:56.600,71981,24297,14964,4,215756,291760
2025-02-21 17:55:56.619,67706,25201,16189,3,214932,290950
2025-02-21 17:55:56.765,66162,25474,16482,3,214753,291157
2025-02-21 17:55:56.917,63254,24376,15418,4,210240,285175
2025-02-21 17:55:56.922,63040,24337,15439,2,211583,286116
2025-02-21 17:55:57.087,63677,24666,15839,3,213994,288894
2025-02-21 17:55:57.115,64118,24876,16026,4,214907,290665
2025-02-21 17:55:57.240,63276,24610,15702,4,213524,289129
2025-02-21 17:55:57.410,62216,24219,15294,4,212020,287136
2025-02-21 17:55:57.415,62028,23982,15245,4,212131,286643
2025-02-21 17:55:57.549,62515,24046,15472,4,213410,288413
2025-02-21 17:55:57.725,63280,24184,15681,3,213909,289885
2025-02-21 17:55:57.727,62876,24018,15547,2,213103,289499
2025-02-21 17:55:57.908,62248,23818,15338,4,212728,288392
2025-02-21 17:55:57.919,61106,23411,14834,3,210637,285768
2025-02-21 17:55:58.079,61056,23275,14780,3,210589,284802
2025-02-21 17:55:58.111,61521,23202,14887,4,211153,286115
2025-02-21 17:55:58.223,61812,23205,14960,4,210963,286470
2025-02-21 17:55:58.398,62038,23234,15034,3,209776,286940
2025-02-21 17:55:58.415,61578,23082,14875,3,209133,286042
2025-02-21 17:55:58.541,60736,22771,14519,4,208473,284190
2025-02-21 17:55:58.717,60601,22559,14401,4,208555,283787
2025-02-21 17:55:58.719,60703,22436,14391,4,208729,284187
2025-02-21 17:55:58.850,61843,22731,14751,3,208348,286062
2025-02-21 17:55:59.029,61668,22732,14731,3,207132,285751
2025-02-21 17:55:59.031,61211,22612,14579,4,206314,284631
2025-02-21 17:55:59.177,59797,22084,14022,2,204188,281370
2025-02-21 17:55:59.207,60431,22211,14236,4,205112,282280
2025-02-21 17:55:59.350,60152,21907,14058,4,204904,282136
2025-02-21 17:55:59.535,61199,22227,14392,4,205364,284039
2025-02-21 17:55:59.537,61117,22316,14407,4,204881,284215
2025-02-21 17:55:59.703,60262,22043,14028,5,203389,282347
2025-02-21 17:55:59.710,59647,21854,13720,4,202010,280513
2025-02-21 17:55:59.841,60178,22138,13905,3,202973,281609
2025-02-21 17:56:00.161,60298,22106,13889,4,203041,281709
2025-02-21 17:56:00.164,61296,22463,14217,3,203928,283490
2025-02-21 17:56:00.167,60950,22413,14105,4,203025,282726
2025-02-21 17:56:00.207,59955,22032,13642,3,200595,279800
2025-02-21 17:56:00.315,59330,21944,13380,4,199539,278007
2025-02-21 17:56:00.490,60414,22393,13773,4,201147,280381
2025-02-21 17:56:00.507,60237,22172,13669,3,200999,279946
2025-02-21 17:56:00.631,61258,22446,13994,3,201818,281612
2025-02-21 17:56:00.805,60778,22312,13855,4,201142,280841
2025-02-21 17:56:00.811,59955,22016,13496,3,199646,278855
2025-02-21 17:56:00.942,59831,22068,13422,3,199584,278562
2025-02-21 17:56:01.122,60172,22221,13573,3,200513,279814
2025-02-21 17:56:01.125,60916,22542,13852,3,201293,280985
2025-02-21 17:56:01.313,61320,22723,14005,3,200950,281664
2025-02-21 17:56:01.315,60813,22617,13842,4,200056,280477
2025-02-21 17:56:01.516,60327,22472,13589,3,198571,278871
2025-02-21 17:56:01.519,60621,22552,13492,5,197499,277672
2025-02-21 17:56:01.700,61236,22861,13733,4,198206,278730
2025-02-21 17:56:01.707,61497,22825,13793,3,199065,279653
2025-02-21 17:56:02.007,61804,22765,13825,4,199487,280401
2025-02-21 17:56:02.010,61421,22593,13681,3,199266,280253
2025-02-21 17:56:02.014,61149,22508,13574,4,199265,280225
2025-02-21 17:56:02.192,62441,22828,13856,4,199887,281209
2025-02-21 17:56:02.199,62580,23036,13999,4,200607,282204
2025-02-21 17:56:02.399,62762,23005,14119,4,200448,282105
2025-02-21 17:56:02.403,62470,22850,14087,4,200353,281935
2025-02-21 17:56:02.540,61863,22597,13799,3,199688,281205
2025-02-21 17:56:02.710,61452,22423,13588,3,198996,280205
2025-02-21 17:56:02.713,61790,22556,13758,3,199378,280739
2025-02-21 17:56:02.848,61734,22643,13849,3,199965,281314
2025-02-21 17:56:02.895,61784,22576,13905,4,200296,281586
2025-02-21 17:56:03.064,61122,22291,13755,4,200400,281510
2025-02-21 17:56:03.094,60363,22019,13476,4,200104,280940
2025-02-21 17:56:03.205,60578,22083,13475,6,200178,280944
2025-02-21 17:56:03.383,61053,22282,13577,4,200563,281592
2025-02-21 17:56:03.399,61608,22501,13732,4,200463,281708
2025-02-21 17:56:03.583,61279,22330,13624,4,199965,281014
2025-02-21 17:56:03.590,60868,22027,13422,4,199452,280361
2025-02-21 17:56:03.766,59660,21588,13073,4,198722,279164
2025-02-21 17:56:03.790,59436,21511,13080,3,198615,278825
2025-02-21 17:56:03.905,59505,21582,13189,4,199402,279641
2025-02-21 17:56:04.075,60038,21750,13319,3,199903,280367
2025-02-21 17:56:04.093,59843,21598,13254,4,199875,280222
2025-02-21 17:56:04.213,59320,21243,12982,5,199328,279476
2025-02-21 17:56:04.422,58786,21026,12794,4,198928,278798
2025-02-21 17:56:04.424,59234,21167,12872,3,199392,279337
2025-02-21 17:56:04.562,59835,21374,13001,3,199381,279717
2025-02-21 17:56:04.586,59853,21364,12946,3,198626,278977
2025-02-21 17:56:04.778,59709,21139,12818,3,198117,278248
2025-02-21 17:56:04.790,59072,20773,12531,4,197447,277355
2025-02-21 17:56:04.914,58955,20645,12409,4,196946,276591
2025-02-21 17:56:05.088,59116,20667,12457,3,196928,276653
2025-02-21 17:56:05.090,59209,20700,12486,3,197097,276828
2025-02-21 17:56:05.296,59563,20817,12583,2,197176,277085
2025-02-21 17:56:05.298,59038,20533,12419,3,196873,276562
2025-02-21 17:56:05.461,58232,20113,12120,3,196454,275693
2025-02-21 17:56:05.482,58799,20181,12172,2,196165,275468
2025-02-21 17:56:05.599,59107,20302,12198,3,196203,275747
2025-02-21 17:56:05.773,59707,20432,12285,4,195725,275402
2025-02-21 17:56:05.786,59470,20390,12252,3,195353,274933
2025-02-21 17:56:05.911,59082,20195,12083,5,194816,274314
2025-02-21 17:56:06.088,58657,20049,11909,6,193933,273422
2025-02-21 17:56:06.091,59079,20139,11989,4,193792,273188
2025-02-21 17:56:06.231,58924,20176,12042,3,194094,273569
2025-02-21 17:56:06.278,59090,20264,12122,3,194292,273855
2025-02-21 17:56:06.449,58892,20270,12130,4,194226,273869
2025-02-21 17:56:06.482,58330,20091,11974,3,193671,273371
2025-02-21 17:56:06.584,58103,19814,11789,4,192813,272304
2025-02-21 17:56:06.759,58606,19873,11872,3,193181,272817
2025-02-21 17:56:06.782,59166,19998,11979,5,193159,273055
2025-02-21 17:56:06.901,59279,20005,11971,4,192785,272645
2025-02-21 17:56:07.066,59142,19967,11928,4,192564,272388
2025-02-21 17:56:07.074,58448,19716,11672,3,191720,271280
2025-02-21 17:56:07.204,58962,19714,11732,3,191500,270827
2025-02-21 17:56:07.377,58624,19555,11712,4,191964,271194
2025-02-21 17:56:07.379,58722,19543,11722,4,192197,271463
2025-02-21 17:56:07.519,58684,19615,11781,3,192554,271820
2025-02-21 17:56:07.693,58439,19536,11692,3,192513,271788
2025-02-21 17:56:07.695,57529,19240,11444,5,191980,270910
2025-02-21 17:56:07.833,58195,19407,11600,5,192697,271561
2025-02-21 17:56:07.870,58029,19277,11547,4,192727,271654
2025-02-21 17:56:07.999,58467,19311,11583,3,192518,271452
2025-02-21 17:56:08.189,58434,19334,11567,4,192428,271489
2025-02-21 17:56:08.191,57901,19151,11381,3,191699,270731
2025-02-21 17:56:08.356,57345,18992,11257,3,191183,270027
2025-02-21 17:56:08.366,57415,18991,11307,3,191454,270169
2025-02-21 17:56:08.490,57667,18932,11365,3,191927,270567
2025-02-21 17:56:08.733,58182,19037,11422,4,192470,271288
2025-02-21 17:56:08.735,57961,18997,11350,4,192355,271246
2025-02-21 17:56:08.766,57248,18731,11123,4,191753,270503
2025-02-21 17:56:08.870,57462,18794,11163,4,191719,270429
2025-02-21 17:56:09.027,57617,18853,11206,3,192081,270952
2025-02-21 17:56:09.058,58104,18796,11212,3,191998,270790
2025-02-21 17:56:09.172,58232,18817,11209,3,192152,271079
2025-02-21 17:56:09.337,57737,18645,11044,3,191409,270235
2025-02-21 17:56:09.362,57165,18459,10860,5,190678,269318
2025-02-21 17:56:09.474,57600,18524,10911,4,190530,269067
2025-02-21 17:56:09.650,57540,18516,10947,4,190856,269421
2025-02-21 17:56:09.666,58245,18537,11016,3,191755,270260
2025-02-21 17:56:09.839,58645,18678,11124,4,193032,271598
2025-02-21 17:56:09.853,58239,18574,11002,3,192953,271489
2025-02-21 17:56:10.007,57807,18434,10869,3,192523,270890
2025-02-21 17:56:10.149,58046,18529,10925,3,192825,271279
2025-02-21 17:56:10.158,58375,18599,10966,4,192483,271119
2025-02-21 17:56:10.320,58554,18498,10942,4,192346,270862
2025-02-21 17:56:10.358,58443,18393,10871,3,192036,270568
2025-02-21 17:56:10.513,57942,18204,10678,4,191551,269998
2025-02-21 17:56:10.562,58022,18159,10624,3,191019,269391
2025-02-21 17:56:10.679,57983,18162,10640,3,191059,269433
2025-02-21 17:56:10.817,58105,18149,10652,3,191164,269509
2025-02-21 17:56:10.854,58586,18177,10748,3,192157,270291
2025-02-21 17:56:10.986,58479,18176,10755,4,192772,270984
2025-02-21 17:56:11.129,57655,17938,10540,4,192311,270484
2025-02-21 17:56:11.153,58255,18075,10647,3,192492,270661
2025-02-21 17:56:11.303,58070,18102,10649,3,192705,271053
2025-02-21 17:56:11.442,58760,18280,10785,3,192900,271299
2025-02-21 17:56:11.458,58770,18249,10803,3,192983,271358
2025-02-21 17:56:11.655,58238,18024,10633,3,192494,270845
2025-02-21 17:56:11.657,57569,17809,10418,3,191640,269745
2025-02-21 17:56:11.786,57907,17865,10494,4,191550,269630
2025-02-21 17:56:11.961,57885,17920,10570,4,191986,270125
2025-02-21 17:56:11.963,58566,18131,10710,3,192823,271078
2025-02-21 17:56:12.158,58555,18162,10755,4,193333,271636
2025-02-21 17:56:12.160,57831,17856,10550,3,193075,271149
2025-02-21 17:56:12.331,57769,17809,10539,4,192965,270882
2025-02-21 17:56:12.354,57605,17846,10581,3,193689,271736
2025-02-21 17:56:12.461,58204,17987,10682,4,193435,271619
2025-02-21 17:56:12.638,58623,18205,10839,4,194026,272525
2025-02-21 17:56:12.646,58435,18169,10777,3,193609,272222
2025-02-21 17:56:12.780,57294,17722,10448,4,192633,270874
2025-02-21 17:56:12.952,57406,17669,10439,4,192314,270346
2025-02-21 17:56:12.955,57516,17736,10564,4,192880,271000
2025-02-21 17:56:13.109,58326,17995,10762,3,193906,272303
2025-02-21 17:56:13.149,58573,18248,10946,3,194777,273476
2025-02-21 17:56:13.391,57700,18124,10811,4,194639,273264
2025-02-21 17:56:13.393,57269,17947,10703,4,194618,272891
2025-02-21 17:56:13.539,58158,18147,10924,4,195956,274465
2025-02-21 17:56:13.542,57954,18152,10922,5,195427,274130
2025-02-21 17:56:13.765,58006,18233,10982,4,195518,274172
2025-02-21 17:56:13.768,57679,18173,10882,3,195000,273887
2025-02-21 17:56:13.973,56921,17953,10655,4,193830,272613
2025-02-21 17:56:13.975,56790,17947,10636,4,193857,272410
2025-02-21 17:56:14.144,56851,17864,10695,3,194432,273066
2025-02-21 17:56:14.147,57242,17884,10734,4,194923,273443
2025-02-21 17:56:14.294,58268,18189,11002,4,196025,274765
2025-02-21 17:56:14.338,57898,18172,10946,3,196012,274824
2025-02-21 17:56:14.485,57196,18027,10782,3,195552,274218
2025-02-21 17:56:14.636,57660,18182,10895,4,195942,274605
2025-02-21 17:56:14.642,57820,18123,10906,3,196192,274979
2025-02-21 17:56:14.808,58875,18357,11148,2,197013,275857
2025-02-21 17:56:14.841,59057,18526,11266,3,197269,276242
2025-02-21 17:56:14.999,58132,18315,11028,3,196500,275371
2025-02-21 17:56:15.042,57497,18176,10818,3,195880,274378
2025-02-21 17:56:15.168,58043,18334,10995,3,196226,274860
2025-02-21 17:56:15.306,58649,18352,11093,3,196726,275511
2025-02-21 17:56:15.333,59114,18406,11177,4,197090,276202
2025-02-21 17:56:15.480,58569,18233,11020,4,196521,275654
2025-02-21 17:56:15.621,57774,17998,10844,3,196235,275025
2025-02-21 17:56:15.637,57985,18038,10870,3,196237,275001
2025-02-21 17:56:15.802,58316,18202,11029,5,196690,275821
2025-02-21 17:56:15.838,59050,18287,11139,3,196989,276151
2025-02-21 17:56:15.942,58817,18159,11048,4,196631,275802
2025-02-21 17:56:16.118,57984,17924,10817,4,195911,274730
2025-02-21 17:56:16.130,57572,17791,10680,3,195287,273812
2025-02-21 17:56:16.264,57728,17812,10733,3,195371,273988
2025-02-21 17:56:16.436,58187,17922,10845,4,195842,274658
2025-02-21 17:56:16.439,59031,18133,11050,3,196665,275724
2025-02-21 17:56:16.580,58833,18059,11024,3,196706,275853
2025-02-21 17:56:16.803,58058,17796,10789,3,196184,275277
2025-02-21 17:56:16.806,58081,17762,10747,4,195919,274881
2025-02-21 17:56:16.836,58532,17956,10896,3,196618,275970
2025-02-21 17:56:16.940,58854,18043,10949,3,196202,275749
2025-02-21 17:56:17.112,58801,17988,10921,3,195863,275323
2025-02-21 17:56:17.129,58451,17711,10723,4,195212,274487
2025-02-21 17:56:17.336,57607,17416,10449,4,194595,273471
2025-02-21 17:56:17.339,57707,17382,10417,4,194301,272987
2025-02-21 17:56:17.503,57921,17429,10475,5,194657,273523
2025-02-21 17:56:17.529,58990,17697,10681,3,195541,274692
2025-02-21 17:56:17.648,59331,17916,10865,5,196303,275667
2025-02-21 17:56:17.820,58615,17611,10641,4,195697,274885
2025-02-21 17:56:17.834,58064,17418,10459,3,195401,274301
2025-02-21 17:56:17.968,58496,17558,10578,3,195761,274835
2025-02-21 17:56:18.148,58569,17611,10616,3,195921,275133
2025-02-21 17:56:18.151,59360,17871,10830,3,196349,275906
2025-02-21 17:56:18.292,59141,17864,10809,4,196190,275703
2025-02-21 17:56:18.325,58104,17429,10457,4,195315,274455
2025-02-21 17:56:18.501,57916,17325,10344,2,194961,273827
2025-02-21 17:56:18.529,57890,17281,10343,3,195017,273909
2025-02-21 17:56:18.639,58733,17485,10545,3,195961,275085
2025-02-21 17:56:18.808,59443,17811,10832,3,196915,276448
2025-02-21 17:56:18.830,58876,17718,10764,4,196715,276219
2025-02-21 17:56:19.001,57733,17248,10434,4,196123,274983
2025-02-21 17:56:19.020,58144,17336,10507,4,196626,275318
2025-02-21 17:56:19.175,58495,17528,10672,4,197316,276430
2025-02-21 17:56:19.224,59306,17799,10902,4,197801,277210
2025-02-21 17:56:19.325,59319,17937,10999,3,197872,277498
2025-02-21 17:56:19.490,58446,17690,10759,6,197007,276370
2025-02-21 17:56:19.524,57743,17323,10475,4,196202,274917
2025-02-21 17:56:19.629,58177,17354,10566,4,196363,275197
2025-02-21 17:56:19.806,58525,17404,10642,4,196800,275768
2025-02-21 17:56:19.817,59403,17672,10887,5,197545,276898
2025-02-21 17:56:19.946,59283,17748,10942,4,197733,277079
2025-02-21 17:56:20.118,58551,17487,10726,4,197100,276375
2025-02-21 17:56:20.121,58824,17341,10674,3,196862,275843
2025-02-21 17:56:20.319,59441,17494,10815,4,197266,276499
2025-02-21 17:56:20.321,59948,17644,10945,4,197200,276542
2025-02-21 17:56:20.500,60018,17696,10955,3,196797,276187
2025-02-21 17:56:20.513,59887,17619,10811,3,196109,275408
2025-02-21 17:56:20.642,59544,17500,10665,4,195419,274548
2025-02-21 17:56:20.874,59723,17321,10636,3,194724,273618
2025-02-21 17:56:20.876,59684,17257,10636,4,194921,273725
2025-02-21 17:56:20.917,60134,17370,10755,3,195622,274602
2025-02-21 17:56:21.017,60277,17521,10901,4,196642,275611
2025-02-21 17:56:21.181,59617,17430,10814,4,196755,275567
2025-02-21 17:56:21.217,59245,17275,10719,3,196457,274978
2025-02-21 17:56:21.322,59325,17291,10783,3,196792,275305
2025-02-21 17:56:21.486,59860,17451,10879,4,196484,275227
2025-02-21 17:56:21.509,59833,17479,10886,3,196240,275022
2025-02-21 17:56:21.630,59637,17429,10812,4,195822,274576
2025-02-21 17:56:21.824,59056,17273,10629,3,195442,274035
2025-02-21 17:56:21.827,59231,17290,10634,4,195194,273743
2025-02-21 17:56:22.026,59153,17130,10613,4,195150,273502
2025-02-21 17:56:22.028,60031,17176,10717,4,195690,274217
2025-02-21 17:56:22.199,60282,17382,10878,3,196471,275283
2025-02-21 17:56:22.216,59854,17268,10754,3,196063,274883
2025-02-21 17:56:22.344,59350,17122,10610,4,195694,274310
2025-02-21 17:56:22.587,60095,17299,10716,3,195916,274768
2025-02-21 17:56:22.590,60565,17324,10774,4,195547,274363
2025-02-21 17:56:22.608,60434,17238,10749,4,195492,274224
2025-02-21 17:56:22.718,60292,17193,10685,3,195186,273948
2025-02-21 17:56:22.890,59450,16976,10455,4,194732,273342
2025-02-21 17:56:22.908,59556,16963,10420,4,194302,272794
2025-02-21 17:56:23.032,59564,16945,10466,3,194439,272929
2025-02-21 17:56:23.210,59904,16929,10523,3,195185,273627
2025-02-21 17:56:23.213,60240,17147,10682,4,196203,274661
2025-02-21 17:56:23.341,59697,17101,10640,4,196276,274657
2025-02-21 17:56:23.519,58759,16912,10479,3,196209,274406
2025-02-21 17:56:23.522,58893,16957,10494,2,195928,274119
2025-02-21 17:56:23.709,59502,17131,10644,4,196131,274566
2025-02-21 17:56:23.711,59844,17083,10665,3,195862,274256
2025-02-21 17:56:23.883,59751,16967,10612,4,195724,274091
2025-02-21 17:56:23.909,58981,16703,10327,3,194870,273025
2025-02-21 17:56:24.024,59026,16596,10275,3,194113,272091
2025-02-21 17:56:24.199,59560,16586,10314,3,194103,271827
2025-02-21 17:56:24.201,60034,16786,10463,3,194971,272974
2025-02-21 17:56:24.338,60367,16956,10631,3,196072,274163
2025-02-21 17:56:24.506,59964,16914,10627,4,196419,274515
2025-02-21 17:56:24.508,59187,16721,10444,3,196222,274320
2025-02-21 17:56:24.682,59648,16826,10516,5,196473,274608
2025-02-21 17:56:24.704,59395,16815,10468,4,196391,274655
2025-02-21 17:56:24.849,60439,17064,10711,4,196906,275229
2025-02-21 17:56:24.897,60326,17028,10755,3,197214,275460
2025-02-21 17:56:24.997,59712,16811,10570,3,196726,274904
2025-02-21 17:56:25.164,59083,16663,10394,4,196187,274223
2025-02-21 17:56:25.188,59336,16720,10421,4,195945,273918
2025-02-21 17:56:25.304,59389,16746,10455,3,196192,274278
2025-02-21 17:56:25.531,60125,16847,10554,4,196598,274778
2025-02-21 17:56:25.533,60172,16773,10567,5,196935,275053
2025-02-21 17:56:25.668,59484,16562,10394,3,196609,274608
2025-02-21 17:56:25.693,59411,16478,10318,4,196171,273998
2025-02-21 17:56:25.836,59279,16508,10325,3,196762,274634
2025-02-21 17:56:26.035,59977,16661,10449,3,196708,274742
2025-02-21 17:56:26.037,60268,16739,10556,3,197045,275230
2025-02-21 17:56:26.203,59905,16564,10454,4,196680,274802
2025-02-21 17:56:26.205,58546,16199,10130,3,195687,273327
2025-02-21 17:56:26.337,58816,16245,10170,3,195536,273033
2025-02-21 17:56:26.384,58903,16303,10228,4,195888,273616
2025-02-21 17:56:26.505,59902,16533,10397,5,196424,274353
2025-02-21 17:56:26.645,60001,16617,10488,3,196891,274965
2025-02-21 17:56:26.688,59098,16323,10250,3,196322,274184
2025-02-21 17:56:26.821,59185,16292,10204,3,195965,273616
2025-02-21 17:56:26.959,59320,16407,10282,4,196529,274419
2025-02-21 17:56:26.980,59885,16531,10360,3,196407,274473
2025-02-21 17:56:27.185,60175,16709,10494,4,196838,275014
2025-02-21 17:56:27.187,59835,16559,10414,4,196364,274410
2025-02-21 17:56:27.332,58734,16208,10134,3,195591,273282
2025-02-21 17:56:27.526,58968,16212,10160,3,195469,273074
2025-02-21 17:56:27.529,59065,16232,10201,3,195757,273459
2025-02-21 17:56:27.741,59842,16436,10336,4,196381,274231
2025-02-21 17:56:27.743,59886,16618,10460,4,196990,274975
2025-02-21 17:56:27.777,59203,16397,10317,4,196693,274446
2025-02-21 17:56:27.913,58786,16222,10195,2,196436,274017
2025-02-21 17:56:28.060,58762,16274,10243,3,196996,274632
2025-02-21 17:56:28.076,59309,16401,10335,4,196862,274687
2025-02-21 17:56:28.237,59571,16559,10451,4,197136,275161
2025-02-21 17:56:28.281,59536,16641,10483,4,197080,275140
2025-02-21 17:56:28.380,58613,16335,10215,3,196235,274107
2025-02-21 17:56:28.560,58543,16199,10153,4,195864,273324
2025-02-21 17:56:28.572,58635,16217,10223,3,196314,273865
2025-02-21 17:56:28.706,59580,16487,10453,3,197289,275084
2025-02-21 17:56:28.941,59919,16813,10684,4,198112,276264
2025-02-21 17:56:28.943,59268,16773,10565,3,197846,276048
2025-02-21 17:56:28.976,58834,16669,10444,3,197298,275292
2025-02-21 17:56:29.108,59615,16743,10542,4,197620,275788
2025-02-21 17:56:29.352,60028,16853,10621,4,197699,276206
2025-02-21 17:56:29.355,60124,16921,10661,3,197508,276162
2025-02-21 17:56:29.368,59993,16847,10577,3,196880,275443
2025-02-21 17:56:29.580,59219,16670,10392,3,196333,274736
2025-02-21 17:56:29.582,59182,16608,10321,4,195730,273823
2025-02-21 17:56:29.768,59499,16544,10356,3,196034,274229
2025-02-21 17:56:29.772,59843,16611,10398,3,196330,274643
2025-02-21 17:56:29.953,60461,16866,10572,3,196911,275508
2025-02-21 17:56:29.972,59991,16838,10503,4,196753,275390
2025-02-21 17:56:30.151,59232,16669,10324,4,196170,274597
2025-02-21 17:56:30.173,59985,16825,10446,4,196398,274836
2025-02-21 17:56:30.385,60103,16790,10470,4,196669,275244
2025-02-21 17:56:30.397,60766,16934,10601,4,197037,275771
2025-02-21 17:56:30.630,60652,16963,10572,4,196794,275624
2025-02-21 17:56:30.633,60029,16779,10348,3,196020,274766
2025-02-21 17:56:30.669,59917,16716,10246,4,195280,273742
2025-02-21 17:56:30.852,60212,16782,10355,3,195723,274310
2025-02-21 17:56:30.868,60357,16672,10362,2,196041,274524
2025-02-21 17:56:31.122,60971,16897,10585,4,196942,275742
2025-02-21 17:56:31.125,60669,16958,10598,4,197030,275992
2025-02-21 17:56:31.161,59604,16736,10366,4,196501,275147
2025-02-21 17:56:31.324,60114,16858,10443,4,196482,275187
2025-02-21 17:56:31.364,60362,16968,10526,3,196717,275680
2025-02-21 17:56:31.500,60878,16985,10603,3,196810,275908
2025-02-21 17:56:31.645,60680,16917,10541,3,196586,275714
2025-02-21 17:56:31.663,59965,16739,10349,4,196102,275094
2025-02-21 17:56:31.817,59579,16617,10192,5,195369,274140
2025-02-21 17:56:31.965,59810,16693,10264,3,195444,274255
2025-02-21 17:56:31.968,60138,16769,10356,4,195955,274942
2025-02-21 17:56:32.139,60479,16761,10402,4,196380,275377
2025-02-21 17:56:32.160,60182,16695,10340,3,196331,275414
2025-02-21 17:56:32.335,59325,16454,10121,4,195870,274740
2025-02-21 17:56:32.359,59968,16561,10215,3,196080,274965
2025-02-21 17:56:32.505,59821,16571,10202,4,196146,275232
2025-02-21 17:56:32.552,60542,16673,10283,4,195886,274985
2025-02-21 17:56:32.652,60249,16525,10219,4,195735,274735
2025-02-21 17:56:32.827,59627,16347,10074,3,195368,274249
2025-02-21 17:56:32.853,58987,16155,9891,4,194642,273262
2025-02-21 17:56:32.967,59081,16160,9909,3,194542,273097
2025-02-21 17:56:33.138,59420,16228,9972,4,194987,273674
2025-02-21 17:56:33.144,60391,16501,10206,4,196112,274942
2025-02-21 17:56:33.284,60301,16555,10293,3,196651,275634
2025-02-21 17:56:33.455,59568,16362,10117,3,196222,275098
2025-02-21 17:56:33.458,59552,16335,10086,2,195989,274782
2025-02-21 17:56:33.604,59566,16372,10101,6,196107,275051
2025-02-21 17:56:33.648,60162,16519,10216,4,196096,275195
2025-02-21 17:56:33.783,60306,16578,10285,4,196021,275234
2025-02-21 17:56:33.925,59836,16356,10119,4,195412,274391
2025-02-21 17:56:33.940,59201,16183,9954,3,195036,273843
2025-02-21 17:56:34.146,59334,16190,9964,4,194796,273534
2025-02-21 17:56:34.149,59129,16138,9960,3,195059,273839
2025-02-21 17:56:34.285,59490,16212,10030,4,195298,274117
2025-02-21 17:56:34.458,59889,16379,10201,4,196143,275035
2025-02-21 17:56:34.460,59615,16300,10163,5,196125,275043
2025-02-21 17:56:34.650,58743,16080,9973,4,195789,274480
2025-02-21 17:56:34.652,59432,16218,10075,4,195946,274749
2025-02-21 17:56:34.856,59228,16222,10064,4,195854,274778
2025-02-21 17:56:34.859,59788,16389,10209,4,195966,274970
2025-02-21 17:56:34.998,59751,16405,10257,4,196021,275063
2025-02-21 17:56:35.040,59115,16148,10062,3,195594,274481
2025-02-21 17:56:35.171,58538,15948,9874,4,194898,273493
2025-02-21 17:56:35.313,59084,16024,9948,2,195041,273768
2025-02-21 17:56:35.340,59010,16039,9983,5,195271,274122
2025-02-21 17:56:35.487,59916,16347,10224,4,195964,275053
2025-02-21 17:56:35.630,60121,16585,10432,4,196740,276075
2025-02-21 17:56:35.635,59486,16344,10256,4,196138,275308
2025-02-21 17:56:35.851,59431,16286,10234,4,195892,274920
2025-02-21 17:56:35.853,59413,16291,10212,4,195896,275093
2025-02-21 17:56:35.990,59824,16392,10279,4,195843,275046
2025-02-21 17:56:36.036,60407,16672,10522,3,196717,276291
2025-02-21 17:56:36.175,60174,16711,10507,4,196411,276041
2025-02-21 17:56:36.374,59094,16351,10238,4,195714,274951
2025-02-21 17:56:36.377,59133,16270,10180,3,195362,274418
2025-02-21 17:56:36.535,59270,16288,10225,3,195558,274741
2025-02-21 17:56:36.539,60061,16491,10400,3,196395,275664
2025-02-21 17:56:36.676,60537,16829,10674,4,197486,277020
2025-02-21 17:56:36.845,59878,16792,10579,3,197166,276761
2025-02-21 17:56:36.847,59269,16585,10422,4,196620,275902
2025-02-21 17:56:36.986,59609,16545,10428,4,196634,275905
2025-02-21 17:56:37.156,60144,16635,10485,3,196501,275910
2025-02-21 17:56:37.159,60766,16850,10645,3,196880,276512
2025-02-21 17:56:37.298,60700,16896,10617,4,196539,276155
2025-02-21 17:56:37.337,59898,16731,10412,3,195991,275600
2025-02-21 17:56:37.512,59960,16710,10345,3,195210,274610
2025-02-21 17:56:37.528,59959,16591,10347,4,195265,274580
2025-02-21 17:56:37.656,60139,16550,10367,3,195507,274873
2025-02-21 17:56:37.823,60714,16772,10542,4,196436,275977
2025-02-21 17:56:37.831,60681,16888,10606,3,196785,276596
2025-02-21 17:56:38.027,59979,16766,10441,5,196320,275958
2025-02-21 17:56:38.032,60064,16807,10442,4,196086,275693
2025-02-21 17:56:38.197,60197,16823,10467,2,195939,275566
2025-02-21 17:56:38.232,61071,16854,10570,4,195845,275720
2025-02-21 17:56:38.337,60824,16820,10524,4,195632,275535
2025-02-21 17:56:38.509,60392,16701,10391,3,195172,274963
2025-02-21 17:56:38.524,59759,16571,10235,3,194672,274242
2025-02-21 17:56:38.648,59866,16568,10242,4,194436,273998
2025-02-21 17:56:38.823,60062,16613,10305,4,194704,274295
2025-02-21 17:56:38.827,60658,16690,10419,4,195488,275129
2025-02-21 17:56:38.965,60514,16770,10480,5,195977,275757
2025-02-21 17:56:39.131,59626,16571,10272,4,195600,275279
2025-02-21 17:56:39.133,59933,16617,10305,4,195521,275120
2025-02-21 17:56:39.320,59971,16661,10293,3,195615,275455
2025-02-21 17:56:39.322,60671,16803,10378,4,195318,275266
2025-02-21 17:56:39.488,60563,16770,10369,4,195291,275183
2025-02-21 17:56:39.523,60062,16554,10206,3,194746,274553
2025-02-21 17:56:39.633,59500,16375,10030,3,194092,273667
2025-02-21 17:56:39.858,60074,16431,10072,3,193950,273580
2025-02-21 17:56:39.860,59662,16375,10025,4,194047,273697
2025-02-21 17:56:39.998,60198,16539,10151,4,194544,274292
2025-02-21 17:56:40.014,60545,16801,10358,3,195514,275432
2025-02-21 17:56:40.172,59999,16635,10244,3,195393,275272
2025-02-21 17:56:40.219,59457,16444,10075,4,194818,274541
2025-02-21 17:56:40.318,59957,16535,10120,4,195058,274926
2025-02-21 17:56:40.490,60239,16602,10151,4,194886,274822
2025-02-21 17:56:40.519,60722,16779,10282,4,195252,275381
2025-02-21 17:56:40.631,60426,16764,10221,4,194964,275148
2025-02-21 17:56:40.799,59662,16449,9972,5,194062,273899
2025-02-21 17:56:40.823,59645,16334,9889,4,193578,273239
2025-02-21 17:56:40.997,59891,16327,9898,3,193593,273281
2025-02-21 17:56:41.015,60015,16366,9936,4,193947,273652
2025-02-21 17:56:41.153,60511,16629,10124,4,194809,274663
2025-02-21 17:56:41.292,60227,16696,10139,3,194934,274869
2025-02-21 17:56:41.315,59402,16407,9923,3,194362,274036
2025-02-21 17:56:41.463,59871,16349,9909,4,194195,273819
2025-02-21 17:56:41.607,59845,16313,9870,6,194069,273767
2025-02-21 17:56:41.619,60718,16530,10037,4,194341,274289
2025-02-21 17:56:41.776,60547,16614,10062,3,194385,274419
2025-02-21 17:56:41.819,60077,16526,9920,4,193861,273839
2025-02-21 17:56:41.918,59643,16357,9753,4,192969,272696
2025-02-21 17:56:42.091,59909,16224,9724,3,192671,272275
2025-02-21 17:56:42.110,60019,16211,9759,4,192970,272615
2025-02-21 17:56:42.235,60755,16466,9943,3,193861,273632
2025-02-21 17:56:42.405,60849,16644,10061,4,194260,274271
2025-02-21 17:56:42.414,60157,16512,9891,2,193822,273742
2025-02-21 17:56:42.547,60252,16499,9863,3,193491,273327
2025-02-21 17:56:42.771,60327,16385,9823,4,193318,273174
2025-02-21 17:56:42.773,60935,16449,9911,3,193422,273344
2025-02-21 17:56:42.815,61224,16640,10055,5,193893,273995
2025-02-21 17:56:42.907,60844,16593,9967,3,193509,273658
2025-02-21 17:56:43.078,60149,16436,9784,3,192764,272742
2025-02-21 17:56:43.106,60267,16466,9808,4,192485,272377
2025-02-21 17:56:43.278,60082,16300,9757,4,192362,272116
2025-02-21 17:56:43.311,60771,16391,9884,5,193081,272907
2025-02-21 17:56:43.441,61157,16677,10127,4,194167,274287
2025-02-21 17:56:43.581,60702,16644,10051,3,193878,274120
2025-02-21 17:56:43.610,60077,16517,9900,3,193248,273252
2025-02-21 17:56:43.769,60835,16687,10030,4,193630,273910
2025-02-21 17:56:43.802,60800,16635,9998,3,193357,273598
2025-02-21 17:56:43.910,61344,16695,10112,4,193727,274071
2025-02-21 17:56:44.085,61013,16659,10062,4,193456,273817
2025-02-21 17:56:44.106,60184,16472,9867,4,192717,272913
2025-02-21 17:56:44.227,60049,16411,9810,5,192185,272171
2025-02-21 17:56:44.442,60077,16417,9856,3,192385,272387
2025-02-21 17:56:44.444,60170,16423,9911,4,192755,272805
2025-02-21 17:56:44.574,60617,16516,10061,4,193521,273645
2025-02-21 17:56:44.610,60381,16567,10101,4,193761,274026
2025-02-21 17:56:44.749,59334,16355,9910,5,193222,273220
2025-02-21 17:56:44.978,59885,16444,9983,4,193387,273451
2025-02-21 17:56:44.981,59677,16427,9955,4,193321,273474
2025-02-21 17:56:45.002,60228,16546,10052,4,193302,273550
2025-02-21 17:56:45.146,60463,16542,10109,3,193465,273722
2025-02-21 17:56:45.285,59939,16422,10011,4,193437,273730
2025-02-21 17:56:45.302,58995,16188,9801,3,192655,272620
2025-02-21 17:56:45.456,59165,16149,9801,3,192467,272395
2025-02-21 17:56:45.495,59321,16210,9853,3,192944,272983
2025-02-21 17:56:45.603,60249,16549,10122,3,193906,274314
2025-02-21 17:56:45.804,60179,16621,10234,3,194343,274857
2025-02-21 17:56:45.807,59065,16301,9985,3,193792,274052
2025-02-21 17:56:45.955,59382,16332,10014,4,193811,273972
2025-02-21 17:56:45.999,59216,16348,10014,3,194022,274331
2025-02-21 17:56:46.176,59696,16501,10138,4,194265,274574
2025-02-21 17:56:46.202,59671,16606,10198,3,194354,274860
2025-02-21 17:56:46.320,59314,16488,10091,4,193831,274160
2025-02-21 17:56:46.505,58444,16112,9818,3,193010,273014
2025-02-21 17:56:46.508,58941,16049,9793,4,192652,272574
2025-02-21 17:56:46.707,58716,15987,9767,4,192771,272707
2025-02-21 17:56:46.709,59581,16259,9977,3,193669,273676
2025-02-21 17:56:46.877,59912,16582,10208,4,194660,274991
2025-02-21 17:56:46.894,59193,16455,10049,4,194109,274429
2025-02-21 17:56:47.019,58736,16189,9850,3,193327,273146
2025-02-21 17:56:47.186,58984,16240,9921,4,193882,273701
2025-02-21 17:56:47.198,59424,16383,10035,4,194179,274181
2025-02-21 17:56:47.334,59733,16578,10180,4,194749,274923
2025-02-21 17:56:47.505,59418,16535,10098,3,194308,274583
2025-02-21 17:56:47.508,58576,16346,9887,2,193659,273593
2025-02-21 17:56:47.646,58576,16262,9803,2,193162,272805
2025-02-21 17:56:47.690,58773,16171,9780,3,193266,272815
2025-02-21 17:56:47.863,59204,16312,9905,4,193952,273598
2025-02-21 17:56:47.894,59716,16646,10178,4,195118,275129
2025-02-21 17:56:48.006,59123,16563,10076,3,194596,274627
2025-02-21 17:56:48.178,58426,16412,9911,3,194078,273808
2025-02-21 17:56:48.194,59007,16465,9963,3,194325,274002
2025-02-21 17:56:48.377,58971,16412,9926,3,194348,274115
2025-02-21 17:56:48.385,59573,16606,10076,3,194638,274598
2025-02-21 17:56:48.541,59524,16687,10116,3,194593,274526
2025-02-21 17:56:48.586,58939,16576,9978,2,194213,274110
2025-02-21 17:56:48.682,58359,16392,9764,4,193230,272773
2025-02-21 17:56:48.866,58814,16412,9819,4,193479,272973
2025-02-21 17:56:48.878,58995,16358,9825,4,193882,273349
2025-02-21 17:56:49.037,59520,16592,10022,4,194807,274459
2025-02-21 17:56:49.074,59321,16645,10055,4,194839,274575
2025-02-21 17:56:49.234,58302,16381,9817,4,194117,273662
2025-02-21 17:56:49.274,58632,16455,9866,3,194156,273536
2025-02-21 17:56:49.387,58392,16396,9827,4,194446,274000
2025-02-21 17:56:49.699,59136,16434,9902,4,194419,273954
2025-02-21 17:56:49.702,59255,16553,9999,4,194661,274351
2025-02-21 17:56:49.705,58835,16487,9906,5,194216,273842
2025-02-21 17:56:49.967,57886,16261,9666,2,193513,272753
2025-02-21 17:56:49.970,58354,16325,9691,2,193243,272530
2025-02-21 17:56:49.978,58553,16273,9688,3,193275,272546
2025-02-21 17:56:50.184,59183,16391,9831,3,194156,273489
2025-02-21 17:56:50.186,59517,16619,10035,3,194927,274525
2025-02-21 17:56:50.338,58690,16472,9886,3,194463,273993
2025-02-21 17:56:50.370,58414,16396,9800,4,193992,273335
2025-02-21 17:56:50.524,58843,16523,9897,4,194390,273906
2025-02-21 17:56:50.573,58805,16477,9900,4,194091,273566
2025-02-21 17:56:50.676,58626,16341,9859,4,193915,273245
2025-02-21 17:56:50.851,58474,16285,9828,4,193649,272865
2025-02-21 17:56:50.873,57568,16035,9611,3,193102,272258
2025-02-21 17:56:50.992,57839,16026,9589,3,192639,271653
2025-02-21 17:56:51.175,57820,16047,9633,4,192898,271971
2025-02-21 17:56:51.178,58321,16162,9746,4,193399,272576
2025-02-21 17:56:51.380,58574,16295,9913,5,194302,273634
2025-02-21 17:56:51.382,58490,16345,9977,4,194535,273964
2025-02-21 17:56:51.556,57577,16101,9767,3,193848,273049
2025-02-21 17:56:51.559,57763,16150,9805,3,194043,273162
2025-02-21 17:56:51.699,58562,16336,9898,4,194074,273508
2025-02-21 17:56:51.964,59306,16604,10098,3,194398,274001
2025-02-21 17:56:51.966,58952,16467,10033,3,194065,273519
2025-02-21 17:56:51.968,58310,16217,9819,3,193256,272549
2025-02-21 17:56:52.105,58166,16108,9728,3,192501,271580
2025-02-21 17:56:52.154,58189,16079,9735,3,192706,271799
2025-02-21 17:56:52.277,58529,16199,9845,3,193206,272370
2025-02-21 17:56:52.417,58987,16485,10063,3,194211,273630
2025-02-21 17:56:52.458,58421,16295,9961,3,193711,273043
2025-02-21 17:56:52.594,57294,15985,9807,3,193563,272526
2025-02-21 17:56:52.735,57530,16017,9888,3,193864,272837
2025-02-21 17:56:52.750,57700,16124,9972,4,194369,273616
2025-02-21 17:56:52.913,58368,16356,10143,3,194735,274146
2025-02-21 17:56:52.950,58270,16449,10184,3,194670,274174
2025-02-21 17:56:53.111,57566,16190,9991,3,193990,273197
2025-02-21 17:56:53.149,57238,15990,9851,4,193261,272268
2025-02-21 17:56:53.277,57436,15964,9858,3,193174,272148
2025-02-21 17:56:53.416,57460,15957,9867,3,193294,272273
2025-02-21 17:56:53.453,58166,16192,10041,3,194001,273224
2025-02-21 17:56:53.655,58264,16359,10157,3,194382,273811
2025-02-21 17:56:53.657,57550,16058,9952,4,193724,272976
2025-02-21 17:56:53.796,57451,15910,9864,3,193301,272292
2025-02-21 17:56:53.845,58145,16099,9976,4,193906,273220
2025-02-21 17:56:53.976,58536,16218,10030,3,193768,273122
2025-02-21 17:56:54.119,58784,16416,10146,3,194067,273502
2025-02-21 17:56:54.149,58811,16395,10021,3,193276,272798
2025-02-21 17:56:54.302,58910,16111,9671,3,191485,270588
2025-02-21 17:56:54.349,59794,16117,9632,5,190999,269851
2025-02-21 17:56:54.450,60283,16297,9795,4,191957,271008
2025-02-21 17:56:54.625,60534,16524,10021,3,192903,272152
2025-02-21 17:56:54.642,60911,16822,10286,3,193898,273446
2025-02-21 17:56:54.814,60885,16935,10358,3,194071,273918
2025-02-21 17:56:54.841,59473,16623,10077,2,193222,272796
2025-02-21 17:56:55.005,59771,16519,10052,3,192913,272360
2025-02-21 17:56:55.045,60046,16639,10197,3,193599,273250
2025-02-21 17:56:55.170,60652,16912,10454,4,194469,274372
2025-02-21 17:56:55.410,60163,16916,10428,4,194347,274281
2025-02-21 17:56:55.412,59432,16788,10261,4,193816,273674
2025-02-21 17:56:55.437,58831,16655,10097,3,193131,272814
2025-02-21 17:56:55.546,59643,16678,10216,3,193600,273326
2025-02-21 17:56:55.717,59017,16489,10121,4,193612,273314
2025-02-21 17:56:55.740,59552,16588,10229,4,193931,273659
2025-02-21 17:56:55.853,59576,16708,10332,4,194551,274532
2025-02-21 17:56:56.028,58815,16546,10166,3,194262,274208
2025-02-21 17:56:56.040,58786,16537,10133,4,194023,273817
2025-02-21 17:56:56.172,58904,16575,10178,4,194298,274200
2025-02-21 17:56:56.346,59603,16601,10270,3,194456,274442
2025-02-21 17:56:56.349,59479,16596,10262,3,194369,274405
2025-02-21 17:56:56.541,59084,16516,10154,3,194032,274002
2025-02-21 17:56:56.543,58288,16317,9941,3,193262,273063
2025-02-21 17:56:56.724,58728,16430,10016,4,193232,273008
2025-02-21 17:56:56.737,58555,16443,10045,4,193501,273366
2025-02-21 17:56:56.875,59293,16492,10142,3,194106,274010
2025-02-21 17:56:57.123,59637,16626,10270,3,194885,275121
2025-02-21 17:56:57.125,58975,16466,10083,4,194274,274493
2025-02-21 17:56:57.133,58689,16420,10005,3,193981,273956
2025-02-21 17:56:57.266,59004,16534,10075,4,194192,274345
2025-02-21 17:56:57.461,59416,16665,10164,4,194252,274501
2025-02-21 17:56:57.464,59729,16773,10256,4,194456,274859
2025-02-21 17:56:57.613,59541,16637,10163,3,194190,274521
2025-02-21 17:56:57.632,58753,16390,9926,4,193433,273674
2025-02-21 17:56:57.788,58875,16392,9898,5,192929,272943
2025-02-21 17:56:57.837,58866,16419,9950,5,193114,273197
2025-02-21 17:56:57.952,59377,16560,10076,3,193804,274044
2025-02-21 17:56:58.162,59698,16707,10174,4,194332,274949
2025-02-21 17:56:58.165,59353,16536,10059,4,193883,274407
2025-02-21 17:56:58.371,58846,16325,9905,3,193439,273720
2025-02-21 17:56:58.374,59257,16416,9957,3,193548,273897
2025-02-21 17:56:58.581,59461,16472,9990,4,193472,273842
2025-02-21 17:56:58.583,60242,16693,10171,3,194121,274791
2025-02-21 17:56:58.743,60078,16715,10160,2,194025,274788
2025-02-21 17:56:58.746,59212,16474,9957,3,193271,273898
2025-02-21 17:56:58.933,58890,16268,9830,4,192451,272713
2025-02-21 17:56:58.936,58966,16282,9909,4,192676,272957
2025-02-21 17:56:59.091,59115,16368,10002,3,193311,273699
2025-02-21 17:56:59.124,59966,16645,10223,4,194520,275217
2025-02-21 17:56:59.272,60117,16828,10353,4,195167,276101
2025-02-21 17:56:59.414,58738,16495,10067,3,194296,275112
2025-02-21 17:56:59.429,58692,16397,10064,3,194002,274445
2025-02-21 17:56:59.594,58893,16463,10129,4,194459,275128
2025-02-21 17:56:59.628,60094,16711,10318,3,194894,275745
2025-02-21 17:56:59.821,60249,16845,10387,3,195126,276221
2025-02-21 17:56:59.823,59678,16720,10222,2,194487,275525
2025-02-21 17:57:00.009,58908,16553,10052,3,193689,274497
2025-02-21 17:57:00.020,58983,16521,10087,3,193709,274386
2025-02-21 17:57:00.278,59120,16523,10138,3,194132,274938
2025-02-21 17:57:00.282,59933,16681,10275,3,194729,275832
2025-02-21 17:57:00.513,60035,16729,10303,3,194803,276110
2025-02-21 17:57:00.516,59436,16530,10129,4,194297,275531
2025-02-21 17:57:00.524,59182,16447,10053,3,193967,274983
2025-02-21 17:57:00.729,59395,16452,10083,4,194148,275230
2025-02-21 17:57:00.731,60064,16524,10185,3,194443,275617
2025-02-21 17:57:00.911,60474,16623,10270,3,194777,276259
2025-02-21 17:57:00.916,60179,16520,10142,3,194193,275643
2025-02-21 17:57:01.059,59333,16320,9928,3,193459,274714
2025-02-21 17:57:01.241,59469,16310,9894,3,192957,274041
2025-02-21 17:57:01.244,59314,16227,9882,4,193052,274083
2025-02-21 17:57:01.383,59799,16361,10021,4,193774,274953
2025-02-21 17:57:01.419,60547,16579,10223,3,194788,276275
2025-02-21 17:57:01.559,60462,16607,10222,3,194759,276436
2025-02-21 17:57:01.760,59225,16297,9920,3,193644,275031
2025-02-21 17:57:01.763,59691,16457,10048,4,194228,275656
2025-02-21 17:57:01.929,59855,16484,10088,3,194141,275665
2025-02-21 17:57:01.931,60849,16540,10249,4,194580,276103
2025-02-21 17:57:02.067,61132,16587,10320,3,194611,276158
2025-02-21 17:57:02.116,60270,16393,10104,4,194160,275740
2025-02-21 17:57:02.309,59762,16271,9954,5,193353,274692
2025-02-21 17:57:02.320,59799,16324,10039,4,193645,275088
2025-02-21 17:57:02.453,60001,16408,10153,4,194153,275730
2025-02-21 17:57:02.621,60212,16398,10240,4,194705,276407
2025-02-21 17:57:02.624,60081,16306,10200,3,194686,276524
2025-02-21 17:57:02.770,59177,16009,9975,3,194186,275886
2025-02-21 17:57:02.813,59393,16044,10018,3,194246,275808
2025-02-21 17:57:02.943,59554,16125,10064,4,194389,276177
2025-02-21 17:57:03.085,60485,16328,10222,2,194800,276788
2025-02-21 17:57:03.112,60465,16238,10176,3,194650,276728
2025-02-21 17:57:03.264,59854,15980,9982,3,193977,275821
2025-02-21 17:57:03.458,59028,15750,9817,3,193255,274862
2025-02-21 17:57:03.460,59410,15789,9892,4,193205,274758
2025-02-21 17:57:03.627,59502,15828,9904,3,193397,275041
2025-02-21 17:57:03.630,60499,16073,10091,4,194245,276109
2025-02-21 17:57:03.769,60351,16076,10171,4,194875,276879
2025-02-21 17:57:03.808,59398,15772,9963,3,194432,276379
2025-02-21 17:57:03.998,59300,15704,9903,2,194066,275872
2025-02-21 17:57:04.011,59637,15785,9951,3,194127,276021
2025-02-21 17:57:04.139,60647,16002,10124,3,194835,276955
2025-02-21 17:57:04.311,60839,16149,10210,3,195283,277647
2025-02-21 17:57:04.314,60394,15996,10073,3,194518,276759
2025-02-21 17:57:04.455,59751,15743,9880,5,193907,275917
2025-02-21 17:57:04.504,59871,15733,9871,4,193763,275726
2025-02-21 17:57:04.634,59781,15714,9877,3,193825,275822
2025-02-21 17:57:04.777,60677,15885,10036,3,194594,276689
2025-02-21 17:57:04.807,60853,16052,10161,4,195260,277587
2025-02-21 17:57:04.955,60419,15939,10053,3,194952,277281
2025-02-21 17:57:05.098,59957,15684,9879,3,194257,276345
2025-02-21 17:57:05.108,60610,15742,9928,4,194473,276619
2025-02-21 17:57:05.354,61030,15831,9981,4,194655,276979
2025-02-21 17:57:05.356,61711,15972,10096,3,194872,277404
2025-02-21 17:57:05.399,61427,15953,10051,3,194683,277217
2025-02-21 17:57:05.501,60462,15718,9810,2,193808,276229
2025-02-21 17:57:05.729,60221,15542,9705,3,193140,275105
2025-02-21 17:57:05.731,60186,15476,9731,3,193464,275432
2025-02-21 17:57:05.880,60791,15569,9839,3,194196,276310
2025-02-21 17:57:05.904,61226,15774,10016,3,195111,277419
2025-02-21 17:57:06.093,61333,15889,10097,3,195411,277855
2025-02-21 17:57:06.096,60529,15722,9918,4,194914,277353
2025-02-21 17:57:06.241,60972,15741,9939,3,194772,277089
2025-02-21 17:57:06.557,61197,15704,9939,3,194965,277390
2025-02-21 17:57:06.562,61766,15774,10025,3,195075,277611
2025-02-21 17:57:06.567,61588,15792,10024,4,195027,277572
2025-02-21 17:57:06.600,61052,15661,9885,3,194601,277091
2025-02-21 17:57:06.748,60353,15517,9721,4,193889,276177
2025-02-21 17:57:06.802,60323,15518,9740,3,193806,276011
2025-02-21 17:57:07.102,60249,15396,9714,3,194041,276096
2025-02-21 17:57:07.105,61172,15544,9876,3,194974,277180
2025-02-21 17:57:07.109,61298,15693,9991,4,195619,277891
2025-02-21 17:57:07.298,60929,15632,9901,3,195369,277626
2025-02-21 17:57:07.301,60652,15552,9788,4,194883,276994
2025-02-21 17:57:07.539,61093,15662,9836,3,194937,277097
2025-02-21 17:57:07.543,61581,15738,9932,2,195110,277265
2025-02-21 17:57:07.722,61697,15728,9984,4,195377,277553
2025-02-21 17:57:07.725,61425,15688,9950,2,195332,277503
2025-02-21 17:57:07.961,60408,15433,9683,3,194462,276397
2025-02-21 17:57:07.966,60417,15412,9646,3,193965,275651
2025-02-21 17:57:07.987,60228,15395,9647,4,194104,275772
2025-02-21 17:57:08.142,61105,15589,9821,3,194904,276800
2025-02-21 17:57:08.383,61566,15808,10032,3,195982,278018
2025-02-21 17:57:08.386,61255,15735,9968,3,195856,277792
2025-02-21 17:57:08.392,60601,15555,9771,4,195217,276944
2025-02-21 17:57:08.625,61291,15677,9843,4,195202,276884
2025-02-21 17:57:08.628,61342,15727,9850,3,195294,277015
2025-02-21 17:57:08.806,61877,15853,9969,4,195532,277387
2025-02-21 17:57:08.808,61658,15862,9955,3,195435,277291
2025-02-21 17:57:08.950,61046,15590,9739,3,194841,276451
2025-02-21 17:57:08.987,60344,15333,9507,4,193959,275185
2025-02-21 17:57:09.213,60373,15317,9517,4,193908,274991
2025-02-21 17:57:09.215,60594,15364,9575,3,194518,275691
2025-02-21 17:57:09.353,61520,15637,9789,4,195583,277027
2025-02-21 17:57:09.388,61621,15832,9922,3,196164,277822
2025-02-21 17:57:09.579,60772,15627,9709,3,195496,276992
2025-02-21 17:57:09.591,60655,15475,9598,3,194974,276021
2025-02-21 17:57:09.720,60803,15503,9629,2,195264,276332
2025-02-21 17:57:09.900,61697,15691,9797,3,195900,277186
2025-02-21 17:57:09.902,61806,15840,9895,5,196269,277768
2025-02-21 17:57:10.048,61323,15763,9769,3,195783,277253
2025-02-21 17:57:10.083,60582,15606,9558,4,194893,276089
2025-02-21 17:57:10.226,60863,15618,9577,4,194772,275820
2025-02-21 17:57:10.420,60529,15461,9501,5,194971,275870
2025-02-21 17:57:10.422,61514,15637,9678,3,195930,277057
2025-02-21 17:57:10.622,61806,15867,9863,3,196966,278238
2025-02-21 17:57:10.624,61226,15771,9731,3,196646,277917
2025-02-21 17:57:10.765,60769,15650,9593,4,196140,277126
2025-02-21 17:57:10.779,61245,15734,9671,3,196329,277360
2025-02-21 17:57:11.001,61776,15743,9727,3,196572,277624
2025-02-21 17:57:11.003,61873,15738,9726,4,196671,277840
2025-02-21 17:57:11.140,61639,15671,9636,5,196263,277342
2025-02-21 17:57:11.185,60848,15480,9437,5,195679,276598
2025-02-21 17:57:11.317,60751,15463,9371,4,195332,276054
2025-02-21 17:57:11.459,60664,15457,9385,3,195492,276331
2025-02-21 17:57:11.475,60760,15363,9388,4,195777,276513
2025-02-21 17:57:11.640,61391,15504,9542,3,196632,277357
2025-02-21 17:57:11.675,61396,15626,9627,3,197096,277932
2025-02-21 17:57:11.782,60449,15420,9418,3,196495,277127
2025-02-21 17:57:11.959,60888,15500,9456,4,196414,276913
2025-02-21 17:57:11.978,61181,15599,9517,4,196825,277546
2025-02-21 17:57:12.159,61748,15669,9601,5,196918,277694
2025-02-21 17:57:12.179,61513,15578,9571,3,196886,277471
2025-02-21 17:57:12.330,61000,15424,9440,4,196529,277065
2025-02-21 17:57:12.472,60386,15250,9255,4,195612,275890
2025-02-21 17:57:12.475,60411,15246,9254,3,195407,275569
2025-02-21 17:57:12.714,60533,15276,9284,4,195746,275903
2025-02-21 17:57:12.715,61501,15539,9517,3,196975,277310
2025-02-21 17:57:12.861,61554,15614,9627,3,197710,278093
2025-02-21 17:57:12.875,59969,15290,9433,4,197327,277340
2025-02-21 17:57:13.048,59653,15227,9412,4,197357,277200
2025-02-21 17:57:13.075,60152,15288,9411,4,197148,277154
2025-02-21 17:57:13.225,61072,15466,9533,3,197047,277144
2025-02-21 17:57:13.268,61174,15611,9651,4,197495,277763
2025-02-21 17:57:13.424,60613,15389,9500,3,197095,277217
2025-02-21 17:57:13.468,59879,15118,9281,3,196278,276098
2025-02-21 17:57:13.577,59784,15070,9240,4,195991,275684
2025-02-21 17:57:13.843,59883,15074,9256,3,196159,275854
2025-02-21 17:57:13.845,61027,15355,9492,3,197323,277304
2025-02-21 17:57:13.871,61417,15692,9753,3,198471,278738
2025-02-21 17:57:13.999,60953,15564,9649,3,197998,278207
2025-02-21 17:57:14.174,60169,15261,9426,3,197232,276974
2025-02-21 17:57:14.176,61097,15403,9544,3,197593,277540
2025-02-21 17:57:14.386,61177,15440,9547,4,197427,277490
2025-02-21 17:57:14.388,61682,15602,9692,3,197815,277968
2025-02-21 17:57:14.553,61546,15651,9706,4,197884,278162
2025-02-21 17:57:14.566,60589,15387,9459,3,196867,277025
2025-02-21 17:57:14.694,60429,15188,9352,3,196122,275832
2025-02-21 17:57:14.867,60332,15114,9351,3,196255,275930
2025-02-21 17:57:14.871,60944,15217,9455,4,196944,276711
2025-02-21 17:57:15.017,61615,15525,9705,3,198074,278071
2025-02-21 17:57:15.063,61332,15594,9723,3,198112,278297
2025-02-21 17:57:15.190,60476,15419,9540,3,197455,277386
2025-02-21 17:57:15.365,61222,15437,9606,3,197459,277280
2025-02-21 17:57:15.368,61001,15343,9558,4,197521,277407
2025-02-21 17:57:15.597,61758,15508,9714,4,197786,277865
2025-02-21 17:57:15.599,61597,15588,9759,3,197944,278124
2025-02-21 17:57:15.737,60756,15393,9556,4,197184,277298
2025-02-21 17:57:15.767,60320,15292,9456,3,196461,276210
2025-02-21 17:57:15.912,60436,15310,9512,4,196625,276407
2025-02-21 17:57:15.959,60662,15197,9499,3,196810,276555
2025-02-21 17:57:16.058,61558,15446,9730,3,198026,277907
2025-02-21 17:57:16.233,61684,15656,9882,4,198671,278786
2025-02-21 17:57:16.259,60758,15473,9685,4,198038,278006
2025-02-21 17:57:16.376,61119,15537,9724,4,197798,277577
2025-02-21 17:57:16.550,61149,15614,9763,4,198134,278146
2025-02-21 17:57:16.562,61916,15682,9891,3,198351,278403
2025-02-21 17:57:16.687,61784,15645,9902,3,198558,278610
2025-02-21 17:57:16.864,61268,15489,9748,3,197977,277953
2025-02-21 17:57:16.866,60466,15257,9553,4,197005,276728
2025-02-21 17:57:17.009,60487,15248,9559,4,196708,276266
2025-02-21 17:57:17.057,60531,15300,9592,4,197086,276722
2025-02-21 17:57:17.239,61473,15550,9795,4,198100,277956
2025-02-21 17:57:17.254,61683,15691,9952,4,198748,278787
2025-02-21 17:57:17.379,61110,15587,9835,4,198316,278389
2025-02-21 17:57:17.557,60567,15460,9708,5,197691,277410
2025-02-21 17:57:17.559,61211,15603,9801,3,198119,278086
2025-02-21 17:57:17.696,61626,15731,9892,4,198234,278381
2025-02-21 17:57:17.924,61901,15886,10043,4,198676,278951
2025-02-21 17:57:17.926,61484,15714,9909,3,198089,278219
2025-02-21 17:57:17.951,60651,15468,9695,3,197247,277184
2025-02-21 17:57:18.071,60440,15406,9644,4,196714,276461
2025-02-21 17:57:18.246,60431,15389,9659,4,196896,276621
2025-02-21 17:57:18.255,60990,15501,9753,3,197521,277363
2025-02-21 17:57:18.386,61629,15796,9992,3,198505,278571
2025-02-21 17:57:18.568,61460,15792,10012,4,198589,278670
2025-02-21 17:57:18.570,60616,15543,9794,3,197902,277798
2025-02-21 17:57:18.711,61013,15590,9809,3,197756,277585
2025-02-21 17:57:18.746,61055,15603,9783,4,197683,277587
2025-02-21 17:57:18.938,61776,15780,9945,4,198019,278060
2025-02-21 17:57:18.950,61784,15913,10041,4,198387,278513
2025-02-21 17:57:19.078,61204,15717,9885,5,197835,277922
2025-02-21 17:57:19.257,60264,15389,9617,5,196716,276441
2025-02-21 17:57:19.259,60416,15391,9639,3,196536,276159
2025-02-21 17:57:19.398,60643,15426,9679,4,196972,276654
2025-02-21 17:57:19.651,61556,15696,9899,4,198011,277875
2025-02-21 17:57:19.654,61705,15945,10086,4,198826,278903
2025-02-21 17:57:19.656,60997,15790,9930,4,198293,278277
2025-02-21 17:57:19.786,60845,15633,9819,3,197739,277458
2025-02-21 17:57:19.964,61233,15667,9803,3,197744,277629
2025-02-21 17:57:19.967,61762,15767,9887,3,197731,277672
2025-02-21 17:57:20.101,61779,15847,9959,3,197888,277940
2025-02-21 17:57:20.146,61452,15793,9875,4,197566,277641
2025-02-21 17:57:20.280,60636,15562,9669,4,196763,276632
2025-02-21 17:57:20.426,60707,15397,9582,2,196174,275751
2025-02-21 17:57:20.450,60508,15295,9547,4,196196,275766
2025-02-21 17:57:20.601,60744,15352,9604,3,196675,276280
2025-02-21 17:57:20.642,61186,15576,9775,4,197539,277322
2025-02-21 17:57:20.794,61117,15676,9838,3,197801,277791
2025-02-21 17:57:20.842,60393,15470,9655,3,197163,276969
2025-02-21 17:57:20.972,60919,15411,9623,4,196813,276422
2025-02-21 17:57:21.112,60782,15360,9578,4,196796,276501
2025-02-21 17:57:21.146,61445,15542,9744,4,197264,277019
2025-02-21 17:57:21.364,61529,15710,9856,4,197942,277946
2025-02-21 17:57:21.366,61025,15597,9703,3,197186,277213
2025-02-21 17:57:21.506,60253,15398,9492,3,195997,275665
2025-02-21 17:57:21.538,60251,15273,9471,3,195716,275152
2025-02-21 17:57:21.671,60252,15190,9473,4,195975,275329
2025-02-21 17:57:21.837,61087,15470,9714,4,197312,276906
2025-02-21 17:57:21.840,61221,15704,9886,3,198128,277994
2025-02-21 17:57:22.017,60481,15561,9705,4,197395,277195
2025-02-21 17:57:22.042,60250,15497,9595,3,196650,276125
2025-02-21 17:57:22.159,60546,15517,9622,3,196931,276452
2025-02-21 17:57:22.336,61127,15543,9683,3,197175,276928
2025-02-21 17:57:22.338,61075,15556,9698,5,196975,276796
2025-02-21 17:57:22.522,60501,15421,9597,3,196619,276321
2025-02-21 17:57:22.534,59687,15240,9500,3,196111,275584
2025-02-21 17:57:22.694,59722,15176,9491,5,195596,274991
2025-02-21 17:57:22.737,59529,15033,9435,5,195660,274883
2025-02-21 17:57:22.837,60070,15103,9511,4,196301,275685
2025-02-21 17:57:23.078,60572,15409,9738,3,197393,277105
2025-02-21 17:57:23.080,60520,15528,9794,4,197645,277523
2025-02-21 17:57:23.210,59639,15315,9554,3,196595,276242
2025-02-21 17:57:23.230,60267,15453,9627,3,196441,275992
2025-02-21 17:57:23.390,60415,15480,9630,4,196591,276271
2025-02-21 17:57:23.429,61149,15580,9762,3,197045,276956
2025-02-21 17:57:23.533,60967,15613,9782,3,197063,277010
2025-02-21 17:57:23.707,60238,15437,9590,3,196255,276169
2025-02-21 17:57:23.733,59880,15340,9487,4,195445,275068
2025-02-21 17:57:23.849,59962,15368,9526,4,195487,275113
2025-02-21 17:57:24.025,60070,15387,9553,3,195773,275447
2025-02-21 17:57:24.027,60753,15500,9701,4,196621,276396
2025-02-21 17:57:24.221,60845,15628,9819,3,197243,277268
2025-02-21 17:57:24.226,60086,15472,9653,4,196721,276634
2025-02-21 17:57:24.399,60257,15481,9647,4,196411,276128
2025-02-21 17:57:24.429,60301,15549,9660,3,196649,276621
2025-02-21 17:57:24.540,60996,15692,9784,5,196668,276756
2025-02-21 17:57:24.719,60748,15613,9783,3,196598,276588
2025-02-21 17:57:24.730,60376,15455,9660,3,196161,276137
2025-02-21 17:57:24.860,59626,15240,9467,3,195308,275066
2025-02-21 17:57:25.042,59624,15211,9461,3,194949,274576
2025-02-21 17:57:25.045,59460,15181,9462,4,195034,274661
2025-02-21 17:57:25.186,60267,15407,9638,4,196024,275828
2025-02-21 17:57:25.226,60690,15684,9885,3,197117,277215
2025-02-21 17:57:25.359,60267,15602,9830,5,197023,277163
2025-02-21 17:57:25.545,59577,15418,9667,4,196458,276322
2025-02-21 17:57:25.549,60268,15561,9772,3,196634,276596
2025-02-21 17:57:25.714,60004,15568,9753,4,196640,276730
2025-02-21 17:57:25.729,60544,15759,9910,4,197046,277316
2025-02-21 17:57:25.913,60507,15867,9979,3,197188,277558
2025-02-21 17:57:25.920,59747,15569,9746,4,196340,276552
2025-02-21 17:57:26.088,59431,15372,9596,3,195377,275282
2025-02-21 17:57:26.121,59490,15348,9599,3,195357,275184
2025-02-21 17:57:26.224,59796,15424,9656,3,195760,275654
2025-02-21 17:57:26.476,60665,15769,9921,3,196934,277143
2025-02-21 17:57:26.479,60615,15953,10040,4,197355,277819
2025-02-21 17:57:26.525,59830,15710,9832,3,196610,276837
2025-02-21 17:57:26.612,60048,15653,9821,3,196474,276510
2025-02-21 17:57:26.788,59878,15613,9761,3,196433,276623
2025-02-21 17:57:26.805,60719,15790,9902,3,196508,276795
2025-02-21 17:57:26.933,60760,15916,9995,3,196804,277326
2025-02-21 17:57:27.108,60489,15881,9915,3,196410,276973
2025-02-21 17:57:27.110,59778,15679,9725,5,195519,275831
2025-02-21 17:57:27.250,59507,15514,9661,3,195034,275076
2025-02-21 17:57:27.438,59381,15442,9649,4,195008,275005
2025-02-21 17:57:27.441,60218,15625,9805,4,195861,276073
2025-02-21 17:57:27.581,60523,15877,9997,3,196776,277305
2025-02-21 17:57:27.601,60179,15873,9952,3,196544,277132
2025-02-21 17:57:27.797,59571,15700,9805,3,196043,276417
2025-02-21 17:57:27.804,60076,15679,9825,3,195990,276305
2025-02-21 17:57:27.945,59992,15661,9826,4,195970,276335
2025-02-21 17:57:28.191,60295,15769,9912,3,196119,276580
2025-02-21 17:57:28.193,60187,15829,9934,3,196149,276683
2025-02-21 17:57:28.205,59642,15700,9775,4,195575,276128
2025-02-21 17:57:28.321,59301,15586,9663,4,194847,275191
2025-02-21 17:57:28.499,59383,15462,9631,3,194565,274790
2025-02-21 17:57:28.501,59422,15400,9623,3,194685,274828
2025-02-21 17:57:28.638,60424,15726,9892,3,196000,276437
2025-02-21 17:57:28.816,60622,16001,10102,4,196915,277670
2025-02-21 17:57:28.818,60086,15929,9992,4,196447,277197
2025-02-21 17:57:28.962,59906,15899,9937,4,196113,276633
2025-02-21 17:57:29.001,59960,15817,9911,3,195961,276453
2025-02-21 17:57:29.134,60394,15842,9971,3,196110,276674
2025-02-21 17:57:29.276,60642,15977,10072,3,196465,277240
2025-02-21 17:57:29.305,60432,15948,10006,4,196032,276855
2025-02-21 17:57:29.502,59706,15772,9819,4,195397,276068
2025-02-21 17:57:29.504,59581,15769,9789,4,194877,275347
2025-02-21 17:57:29.633,59303,15671,9752,4,194692,275083
2025-02-21 17:57:29.814,59737,15615,9766,3,194942,275346
2025-02-21 17:57:29.816,60237,15816,9946,5,195831,276477
2025-02-21 17:57:30.015,60103,15869,9985,4,196075,276840
2025-02-21 17:57:30.018,59370,15678,9804,3,195432,276041
2025-02-21 17:57:30.192,59895,15797,9871,4,195483,276045
2025-02-21 17:57:30.194,59753,15760,9816,3,195389,276026
2025-02-21 17:57:30.332,60417,15756,9859,3,195285,275889
2025-02-21 17:57:30.381,60214,15732,9858,3,195186,275710
2025-02-21 17:57:30.510,59702,15579,9714,3,194652,275124
2025-02-21 17:57:30.656,59054,15423,9567,4,193935,274252
2025-02-21 17:57:30.685,59278,15451,9608,4,193737,273993
2025-02-21 17:57:30.831,58894,15380,9578,4,193805,273993
2025-02-21 17:57:30.877,59457,15412,9648,3,194294,274439
2025-02-21 17:57:31.026,59754,15649,9854,4,195300,275702
2025-02-21 17:57:31.185,59499,15681,9858,3,195383,275891
2025-02-21 17:57:31.187,58944,15525,9702,4,194755,275067
2025-02-21 17:57:31.328,59491,15647,9761,3,194842,275248
2025-02-21 17:57:31.369,59661,15730,9791,4,194710,275173
2025-02-21 17:57:31.500,60123,15830,9899,4,194990,275524
2025-02-21 17:57:31.702,60031,15789,9873,3,194925,275421
2025-02-21 17:57:31.704,59275,15573,9657,3,194161,274569
2025-02-21 17:57:31.868,59034,15488,9543,5,193306,273429
2025-02-21 17:57:31.872,59039,15486,9556,3,193199,273284
2025-02-21 17:57:32.009,59068,15545,9611,3,193621,273761
2025-02-21 17:57:32.189,59462,15733,9763,4,194214,274578
2025-02-21 17:57:32.191,59389,15714,9781,4,194410,274784
2025-02-21 17:57:32.340,58819,15559,9638,3,193971,274204
2025-02-21 17:57:32.365,58868,15534,9581,4,193584,273695
2025-02-21 17:57:32.516,59174,15596,9580,4,193510,273705
2025-02-21 17:57:32.660,59834,15828,9778,5,194169,274539
2025-02-21 17:57:32.668,59848,15990,9889,3,194557,275165
2025-02-21 17:57:32.875,59447,15800,9718,3,193705,274087
2025-02-21 17:57:32.877,58821,15571,9513,4,192719,272753
2025-02-21 17:57:33.027,58698,15545,9532,4,192691,272606
2025-02-21 17:57:33.060,58287,15462,9503,4,192782,272628
2025-02-21 17:57:33.196,58987,15715,9699,4,193786,273799
2025-02-21 17:57:33.335,59348,16048,9952,4,194935,275253
2025-02-21 17:57:33.364,59054,16058,9937,4,194822,275221
2025-02-21 17:57:33.509,58507,15798,9746,3,194125,274150
2025-02-21 17:57:33.653,59011,15824,9720,4,193882,273983
2025-02-21 17:57:33.665,59533,15958,9800,3,194030,274239
2025-02-21 17:57:33.828,59784,16134,9928,4,194467,274908
2025-02-21 17:57:33.857,59617,16147,9892,3,194188,274677
2025-02-21 17:57:33.975,59009,15987,9703,2,193253,273557
2025-02-21 17:57:34.144,59043,15909,9646,4,192827,272875
2025-02-21 17:57:34.161,58763,15716,9563,4,192565,272564
2025-02-21 17:57:34.287,58868,15739,9613,4,192879,272883
2025-02-21 17:57:34.462,59354,16009,9840,5,193882,274057
2025-02-21 17:57:34.465,59216,16126,9919,5,194303,274665
2025-02-21 17:57:34.657,58502,15977,9761,3,193745,273942
2025-02-21 17:57:34.664,59264,16103,9843,3,193729,273891
2025-02-21 17:57:34.822,59049,15952,9740,3,193578,273743
2025-02-21 17:57:34.852,59588,16062,9857,3,193867,274121
2025-02-21 17:57:35.026,59427,16124,9887,3,193896,274205
2025-02-21 17:57:35.056,58905,15979,9734,3,193339,273572
2025-02-21 17:57:35.198,58454,15845,9608,4,192505,272516
2025-02-21 17:57:35.338,58679,15885,9660,3,192537,272546
2025-02-21 17:57:35.357,58436,15768,9623,4,192528,272403
2025-02-21 17:57:35.511,59023,15898,9779,3,193386,273242
2025-02-21 17:57:35.559,59109,16115,9970,2,194238,274362
2025-02-21 17:57:35.688,58608,16037,9876,3,193912,274107
2025-02-21 17:57:35.869,58423,15957,9787,3,193359,273416
2025-02-21 17:57:35.872,58671,16039,9792,4,193547,273737
2025-02-21 17:57:36.012,59203,16176,9916,3,193830,274163
2025-02-21 17:57:36.051,59189,16166,9991,3,194240,274491
2025-02-21 17:57:36.240,58831,16102,9950,4,194162,274367
2025-02-21 17:57:36.252,58114,15876,9770,3,193424,273466
2025-02-21 17:57:36.392,58041,15778,9703,5,192809,272606
2025-02-21 17:57:36.569,58116,15792,9729,4,192956,272774
2025-02-21 17:57:36.571,58647,15974,9863,4,193598,273560
2025-02-21 17:57:36.704,59334,16233,10112,3,194696,274925
2025-02-21 17:57:36.748,58916,16132,10070,2,194619,274890
2025-02-21 17:57:36.953,57933,15838,9852,3,193815,273812
2025-02-21 17:57:36.955,58419,15885,9890,3,193783,273695
2025-02-21 17:57:37.092,58393,15920,9876,4,193979,274077
2025-02-21 17:57:37.261,59088,16170,10065,2,194600,274868
2025-02-21 17:57:37.264,59008,16254,10108,3,194559,274932
2025-02-21 17:57:37.407,58490,16001,9941,3,193822,273912
2025-02-21 17:57:37.444,57781,15681,9738,4,193007,272829
2025-02-21 17:57:37.591,58124,15692,9787,3,193024,272839
2025-02-21 17:57:37.729,57872,15635,9766,3,192873,272735
2025-02-21 17:57:37.744,58522,15842,9921,4,193514,273480
2025-02-21 17:57:37.953,58864,16107,10117,4,194518,274787
2025-02-21 17:57:37.955,58487,16020,10036,3,194218,274542
2025-02-21 17:57:38.095,57765,15655,9793,4,193218,273152
2025-02-21 17:57:38.136,57953,15600,9768,4,193130,272941
2025-02-21 17:57:38.270,58290,15695,9844,3,193403,273291
2025-02-21 17:57:38.414,58845,15962,10042,3,194316,274439
2025-02-21 17:57:38.432,58817,16101,10122,4,194528,274826
2025-02-21 17:57:38.662,58239,15960,9982,3,193868,274073
2025-02-21 17:57:38.664,57849,15690,9803,3,193025,272846
2025-02-21 17:57:38.802,58187,15630,9816,3,193124,272955
2025-02-21 17:57:38.832,58214,15625,9822,3,193137,272922
2025-02-21 17:57:38.980,58740,15879,10008,4,194123,274094
2025-02-21 17:57:39.118,58658,15983,10059,3,194231,274372
2025-02-21 17:57:39.136,58261,15885,9936,4,193708,273797
2025-02-21 17:57:39.290,58252,15793,9847,3,193169,273034
2025-02-21 17:57:39.328,58409,15759,9873,4,193436,273400
2025-02-21 17:57:39.434,58730,15827,9947,4,193779,273718
2025-02-21 17:57:39.606,58952,15973,10055,3,194156,274197
2025-02-21 17:57:39.628,58883,16030,10056,3,194092,274200
2025-02-21 17:57:39.802,58168,15796,9799,3,193065,273037
2025-02-21 17:57:39.832,58597,15866,9861,4,193091,272810
2025-02-21 17:57:39.970,58568,15846,9885,4,193336,273198
2025-02-21 17:57:40.106,58823,15857,9945,3,193671,273435
2025-02-21 17:57:40.124,59285,16089,10148,3,194464,274559
2025-02-21 17:57:40.368,59143,16160,10173,3,194459,274715
2025-02-21 17:57:40.370,58452,15976,9949,4,193662,273774
2025-02-21 17:57:40.510,58552,15997,9908,3,193404,273395
2025-02-21 17:57:40.524,59204,16206,10075,3,194081,274220
2025-02-21 17:57:40.680,60200,16496,10391,4,195335,275791
2025-02-21 17:57:40.727,60463,16637,10507,4,195469,276175
2025-02-21 17:57:40.827,59392,16353,10191,4,194207,274659
2025-02-21 17:57:41.001,59635,16357,10179,3,194062,274280
2025-02-21 17:57:41.028,59539,16367,10225,3,194079,274340
2025-02-21 17:57:41.144,59525,16500,10366,3,194779,275140
2025-02-21 17:57:41.317,59201,16441,10345,2,194676,274984
2025-02-21 17:57:41.319,58618,16161,10149,3,193973,274050
2025-02-21 17:57:41.526,58211,15969,10006,4,193285,273101
2025-02-21 17:57:41.528,58365,16028,10027,3,193814,273672
2025-02-21 17:57:41.700,58800,16160,10108,3,194018,273952
2025-02-21 17:57:41.724,59012,16322,10194,3,194337,274426
2025-02-21 17:57:41.839,58990,16301,10127,4,193842,273845
2025-02-21 17:57:42.014,58275,15920,9850,4,192712,272400
2025-02-21 17:57:42.017,57991,15711,9727,3,192081,271408
2025-02-21 17:57:42.157,58391,15823,9828,3,192555,271765
2025-02-21 17:57:42.332,59263,16248,10146,4,194160,273788
2025-02-21 17:57:42.335,59378,16485,10285,3,194509,274487
2025-02-21 17:57:42.473,58716,16356,10122,5,193876,273762
2025-02-21 17:57:42.519,58184,16100,9945,4,193150,272762
2025-02-21 17:57:42.653,58281,16058,9943,4,193233,272794
2025-02-21 17:57:42.796,58710,16241,10085,4,193738,273467
2025-02-21 17:57:42.824,58913,16420,10192,4,193991,274040
2025-02-21 17:57:42.980,58596,16388,10106,3,193506,273532
2025-02-21 17:57:43.012,57942,16206,9900,4,192575,272439
2025-02-21 17:57:43.176,58399,16240,9907,4,192225,271993
2025-02-21 17:57:43.216,57991,16071,9829,4,192107,271753
2025-02-21 17:57:43.347,58325,16111,9878,4,192500,271946
2025-02-21 17:57:43.492,58555,16325,10023,4,193351,272979
2025-02-21 17:57:43.515,58326,16328,9991,4,193134,272953
2025-02-21 17:57:43.720,57592,16128,9807,3,192418,272032
2025-02-21 17:57:43.722,58106,16227,9857,3,192452,272002
2025-02-21 17:57:43.874,57923,16236,9866,3,192570,272108
2025-02-21 17:57:43.911,58168,16203,9856,3,192634,272065
2025-02-21 17:57:44.048,58025,16200,9826,4,192468,271882
2025-02-21 17:57:44.187,57491,16053,9674,3,191885,271174
2025-02-21 17:57:44.211,57262,15936,9565,4,191088,270196
2025-02-21 17:57:44.367,57354,15983,9605,5,191152,270235
2025-02-21 17:57:44.412,57330,16066,9673,3,191494,270570
2025-02-21 17:57:44.515,57870,16286,9853,4,192329,271557
2025-02-21 17:57:44.684,57895,16342,9932,3,192679,272098
2025-02-21 17:57:44.703,57238,16163,9799,4,192145,271514
2025-02-21 17:57:44.876,57199,16128,9764,4,191869,271053
2025-02-21 17:57:44.906,57080,16127,9748,3,191992,271237
2025-02-21 17:57:45.057,57544,16258,9840,3,192248,271523
2025-02-21 17:57:45.203,57675,16406,9931,4,192566,271977
2025-02-21 17:57:45.207,57342,16282,9833,5,192011,271293
2025-02-21 17:57:45.377,56661,15938,9590,3,190928,269898
2025-02-21 17:57:45.411,56887,15918,9579,4,190562,269330
2025-02-21 17:57:45.584,56840,15976,9653,3,190958,269738
2025-02-21 17:57:45.603,56946,16070,9724,4,191336,270145
2025-02-21 17:57:45.814,57084,16247,9839,3,191879,270852
2025-02-21 17:57:45.817,56891,16252,9825,4,191762,270880
2025-02-21 17:57:45.964,56330,15960,9656,3,190986,269793
2025-02-21 17:57:46.003,56441,15870,9622,3,190819,269452
2025-02-21 17:57:46.155,56665,15942,9693,4,191212,269863
2025-02-21 17:57:46.304,57461,16272,9941,3,192309,271347
2025-02-21 17:57:46.308,57451,16414,10015,3,192373,271786
2025-02-21 17:57:46.495,56972,16290,9872,4,191648,270939
2025-02-21 17:57:46.498,56468,16144,9782,4,191087,270218
2025-02-21 17:57:46.710,56579,15981,9751,3,190801,269763
2025-02-21 17:57:46.713,56275,15890,9747,4,190980,269827
2025-02-21 17:57:46.872,57018,16152,9953,3,192075,271064
2025-02-21 17:57:46.903,57127,16369,10113,3,192818,272146
2025-02-21 17:57:47.019,56592,16256,10008,3,192418,271758
2025-02-21 17:57:47.272,56529,16215,9982,3,192139,271352
2025-02-21 17:57:47.274,56408,16147,9962,2,192271,271546
2025-02-21 17:57:47.295,56671,16052,9940,3,191879,271021
2025-02-21 17:57:47.415,56862,16145,10006,3,192232,271450
2025-02-21 17:57:47.588,56711,16122,9953,3,191933,271196
2025-02-21 17:57:47.595,56090,15895,9784,3,191207,270311
2025-02-21 17:57:47.725,56046,15860,9799,2,190914,269931
2025-02-21 17:57:47.905,55902,15849,9858,3,191136,270117
2025-02-21 17:57:47.908,55761,15709,9851,3,191626,270398
2025-02-21 17:57:48.048,56124,15876,9987,3,192499,271515
2025-02-21 17:57:48.231,56241,15989,10048,4,192811,272028
2025-02-21 17:57:48.233,55756,15826,9912,3,192132,271305
2025-02-21 17:57:48.418,56030,15865,9928,3,192029,271019
2025-02-21 17:57:48.420,56041,15890,9908,4,192074,271185
2025-02-21 17:57:48.590,56911,16054,10033,4,192361,271446
2025-02-21 17:57:48.595,56962,16070,10058,4,192528,271721
2025-02-21 17:57:48.725,56379,15871,9881,5,191799,270862
2025-02-21 17:57:48.967,55994,15700,9755,5,191030,269900
2025-02-21 17:57:48.969,56301,15762,9812,4,191055,269918
2025-02-21 17:57:48.994,56216,15802,9864,4,191460,270404
2025-02-21 17:57:49.101,56694,15998,9995,4,192052,271101
2025-02-21 17:57:49.280,56626,16010,10038,4,192314,271473
2025-02-21 17:57:49.287,56119,15776,9894,3,191903,270961
2025-02-21 17:57:49.421,55895,15641,9813,3,191396,270175
2025-02-21 17:57:49.598,56156,15681,9806,3,191502,270246
2025-02-21 17:57:49.600,56463,15776,9841,3,191608,270312
2025-02-21 17:57:49.735,56969,16003,9968,4,192334,271187
2025-02-21 17:57:49.911,56871,16030,9960,4,192204,271150
2025-02-21 17:57:49.914,56138,15643,9694,4,191132,269743
2025-02-21 17:57:50.110,56253,15539,9626,3,190481,268770
2025-02-21 17:57:50.112,56400,15629,9710,4,191239,269473
2025-02-21 17:57:50.282,56549,15739,9784,3,191833,270220
2025-02-21 17:57:50.286,56796,15938,9932,3,192402,271050
2025-02-21 17:57:50.423,56759,16034,10007,4,192628,271499
2025-02-21 17:57:50.598,55801,15804,9915,5,192455,271247
2025-02-21 17:57:50.601,55749,15563,9831,4,192028,270517
2025-02-21 17:57:50.741,55904,15532,9789,3,192015,270495
2025-02-21 17:57:50.790,56785,15775,9935,3,192533,271164
2025-02-21 17:57:50.921,56915,15937,10010,3,192729,271592
2025-02-21 17:57:51.056,56269,15796,9843,4,192070,270861
2025-02-21 17:57:51.082,55550,15611,9685,4,191160,269685
2025-02-21 17:57:51.234,55718,15650,9731,4,191198,269774
2025-02-21 17:57:51.282,55812,15542,9719,3,191128,269667
2025-02-21 17:57:51.382,56473,15725,9867,5,191970,270501
2025-02-21 17:57:51.556,56574,15892,9985,4,192626,271379
2025-02-21 17:57:51.585,56177,15797,9893,3,192375,271285
2025-02-21 17:57:51.698,56145,15722,9820,4,191780,270495
2025-02-21 17:57:51.947,56383,15783,9812,3,191881,270670
2025-02-21 17:57:51.949,56921,15863,9837,3,191747,270446
2025-02-21 17:57:51.978,57348,15946,9942,3,192519,271170
2025-02-21 17:57:52.081,57163,15917,9908,4,192363,271106
2025-02-21 17:57:52.254,56320,15684,9692,3,191541,270083
2025-02-21 17:57:52.278,56405,15635,9662,3,190930,269261
2025-02-21 17:57:52.474,56252,15661,9688,4,191079,269414
2025-02-21 17:57:52.481,56535,15801,9773,4,191647,270026
2025-02-21 17:57:52.652,56956,16074,9960,3,192545,271175
2025-02-21 17:57:52.674,56898,16050,9977,4,192486,271276
2025-02-21 17:57:52.785,56311,15762,9785,4,191762,270440
2025-02-21 17:57:52.957,56389,15680,9707,4,191408,269843
2025-02-21 17:57:52.973,56664,15756,9737,3,191528,269976
2025-02-21 17:57:53.114,57327,16016,9925,3,192430,271052
2025-02-21 17:57:53.283,57296,16128,9978,5,192540,271366
2025-02-21 17:57:53.286,56887,16049,9873,4,192011,270758
2025-02-21 17:57:53.484,56473,15890,9726,3,191147,269728
2025-02-21 17:57:53.486,56765,15796,9692,4,190889,269312
2025-02-21 17:57:53.655,56428,15739,9661,3,190978,269390
2025-02-21 17:57:53.657,56838,15863,9754,3,191555,269938
2025-02-21 17:57:53.796,57114,16096,9930,4,192544,271186
2025-02-21 17:57:53.974,56861,16085,9901,4,192282,271154
2025-02-21 17:57:53.976,56394,15947,9780,4,191751,270445
2025-02-21 17:57:54.181,56702,16005,9793,4,191740,270490
2025-02-21 17:57:54.184,56706,15880,9735,3,191474,270142
2025-02-21 17:57:54.356,57070,15967,9812,4,192017,270660
2025-02-21 17:57:54.358,56956,15996,9799,4,191981,270643
2025-02-21 17:57:54.498,56443,15833,9642,4,191393,269966
2025-02-21 17:57:54.546,56269,15730,9543,4,190581,268971
2025-02-21 17:57:54.678,56388,15799,9596,3,190757,269107
2025-02-21 17:57:54.816,56206,15832,9617,3,191009,269399
2025-02-21 17:57:54.850,56689,15982,9724,3,191596,270057
2025-02-21 17:57:54.995,56956,16069,9825,4,192282,270927
2025-02-21 17:57:55.137,56547,15963,9716,4,191958,270717
2025-02-21 17:57:55.150,56298,15862,9626,4,191469,269998
2025-02-21 17:57:55.356,56239,15842,9586,4,191461,270010
2025-02-21 17:57:55.358,56770,15971,9670,4,191650,270207
2025-02-21 17:57:55.492,57220,16270,9880,5,192661,271493
2025-02-21 17:57:55.541,57082,16329,9874,4,192471,271445
2025-02-21 17:57:55.678,56434,16009,9617,4,191397,270123
2025-02-21 17:57:55.880,56397,15872,9519,4,190778,269276
2025-02-21 17:57:55.882,56101,15795,9483,3,190679,269081
2025-02-21 17:57:56.076,56443,15917,9570,3,191415,269861
2025-02-21 17:57:56.079,56901,16230,9780,4,192450,271214
2025-02-21 17:57:56.212,56780,16325,9812,3,192582,271602
2025-02-21 17:57:56.237,56245,16217,9688,5,192126,271113
2025-02-21 17:57:56.387,56623,16172,9644,4,191853,270696
2025-02-21 17:57:56.530,56463,16059,9528,4,191738,270564
2025-02-21 17:57:56.542,57026,16231,9648,4,192305,271067
2025-02-21 17:57:56.701,56905,16284,9655,4,192297,271183
2025-02-21 17:57:56.743,56640,16196,9530,3,191761,270518
2025-02-21 17:57:56.843,56295,16064,9386,4,190918,269566
2025-02-21 17:57:57.056,56220,16020,9354,3,190678,269232
2025-02-21 17:57:57.059,56070,15855,9257,3,190622,268854
2025-02-21 17:57:57.195,56581,16039,9383,3,191617,270009
2025-02-21 17:57:57.234,56837,16270,9543,4,192335,271067
2025-02-21 17:57:57.371,56576,16239,9494,4,192072,270971
2025-02-21 17:57:57.577,56168,16107,9372,4,191530,270240
2025-02-21 17:57:57.579,56509,16187,9393,4,191669,270443
2025-02-21 17:57:57.742,56528,16084,9311,5,191535,270247
2025-02-21 17:57:57.744,56844,16137,9369,4,192049,270706
2025-02-21 17:57:57.884,56800,16168,9368,3,191978,270743
2025-02-21 17:57:58.056,56247,15961,9174,3,191219,269866
2025-02-21 17:57:58.058,56203,15864,9093,4,190468,268920
2025-02-21 17:57:58.201,56220,15897,9130,4,190671,269076
2025-02-21 17:57:58.234,56046,15900,9142,3,190885,269301
2025-02-21 17:57:58.372,56528,15995,9229,4,191711,270021
2025-02-21 17:57:58.515,56670,16133,9335,4,192355,270962
2025-02-21 17:57:58.534,56284,16031,9233,2,191933,270660
2025-02-21 17:57:58.732,56187,15921,9142,4,191399,269879
2025-02-21 17:57:58.737,56249,15953,9137,3,191526,270063
2025-02-21 17:57:58.873,56740,16097,9237,3,191873,270402
2025-02-21 17:57:59.051,56886,16232,9334,3,192289,270982
2025-02-21 17:57:59.054,56629,16045,9210,3,191827,270383
2025-02-21 17:57:59.194,55964,15748,8989,3,190890,269177
2025-02-21 17:57:59.230,56110,15689,8963,3,190451,268508
2025-02-21 17:57:59.366,55940,15675,8980,3,190673,268663
2025-02-21 17:57:59.511,56355,15872,9120,5,191480,269641
2025-02-21 17:57:59.533,56707,16189,9334,4,192496,270948
2025-02-21 17:57:59.688,56646,16299,9401,4,192630,271354
2025-02-21 17:57:59.732,55981,15984,9184,3,191724,270311
2025-02-21 17:57:59.830,56283,15868,9125,3,191569,269882
2025-02-21 17:58:00.009,56292,15859,9123,3,191829,270118
2025-02-21 17:58:00.025,57029,16124,9324,3,192696,271112
2025-02-21 17:58:00.163,56808,16195,9366,3,192752,271298
2025-02-21 17:58:00.341,56386,16130,9290,4,192346,270833
2025-02-21 17:58:00.344,56012,15999,9177,4,191403,269859
2025-02-21 17:58:00.538,56081,15976,9195,3,191233,269618
2025-02-21 17:58:00.540,56039,15858,9183,3,191434,269666
2025-02-21 17:58:00.705,56518,15999,9299,4,192245,270627
2025-02-21 17:58:00.721,56510,16117,9380,4,192615,271218
2025-02-21 17:58:00.853,56170,16023,9297,3,192227,270913
2025-02-21 17:58:01.091,56119,15951,9232,3,191798,270364
2025-02-21 17:58:01.093,56120,16009,9246,3,192115,270789
2025-02-21 17:58:01.125,56545,16096,9290,4,191888,270580
2025-02-21 17:58:01.227,56854,16315,9446,5,192606,271404
2025-02-21 17:58:01.405,56866,16290,9449,4,192682,271458
2025-02-21 17:58:01.425,56175,16014,9252,3,192034,270728
2025-02-21 17:58:01.546,56116,15878,9164,3,191158,269620
2025-02-21 17:58:01.719,56176,15884,9211,3,191292,269684
2025-02-21 17:58:01.722,56450,16020,9309,4,191969,270459
2025-02-21 17:58:01.872,56835,16294,9486,4,192813,271518
2025-02-21 17:58:02.041,56762,16396,9544,4,192922,271833
2025-02-21 17:58:02.043,56204,16256,9424,4,192457,271396
2025-02-21 17:58:02.226,56388,16229,9408,4,192003,270851
2025-02-21 17:58:02.228,56348,16113,9369,4,192076,270959
2025-02-21 17:58:02.398,56999,16268,9498,4,192652,271610
2025-02-21 17:58:02.413,57115,16417,9595,4,193100,272211
2025-02-21 17:58:02.542,56667,16319,9489,4,192570,271619
2025-02-21 17:58:02.771,56183,16165,9343,4,191518,270512
2025-02-21 17:58:02.773,56421,16218,9391,4,191424,270341
2025-02-21 17:58:02.817,56195,16243,9420,4,191636,270515
2025-02-21 17:58:02.917,56763,16450,9567,4,192360,271426
2025-02-21 17:58:03.088,56848,16512,9640,5,192799,272048
2025-02-21 17:58:03.117,56538,16341,9540,4,192423,271722
2025-02-21 17:58:03.228,56100,16180,9432,4,191935,271067
2025-02-21 17:58:03.406,56374,16216,9443,3,191887,270920
2025-02-21 17:58:03.413,56648,16318,9499,3,192038,271148
2025-02-21 17:58:03.555,56916,16484,9592,4,192420,271656
2025-02-21 17:58:03.734,56755,16500,9568,4,192260,271521
2025-02-21 17:58:03.737,56393,16388,9457,3,191496,270845
2025-02-21 17:58:03.930,56290,16360,9432,3,190978,270209
2025-02-21 17:58:03.932,56113,16167,9345,4,190698,269716
2025-02-21 17:58:04.104,56393,16215,9393,3,191313,270255
2025-02-21 17:58:04.116,56931,16484,9595,4,192504,271690
2025-02-21 17:58:04.240,57068,16642,9710,3,193004,272510
2025-02-21 17:58:04.484,56423,16487,9571,3,192398,271909
2025-02-21 17:58:04.486,56640,16539,9579,3,192177,271618
2025-02-21 17:58:04.508,56690,16574,9554,3,192090,271698
2025-02-21 17:58:04.622,57367,16791,9704,3,192500,272218
2025-02-21 17:58:04.792,57183,16795,9707,3,192409,272130
2025-02-21 17:58:04.809,56778,16580,9574,5,192006,271497
2025-02-21 17:58:04.931,56265,16373,9426,3,191280,270725
2025-02-21 17:58:05.107,56409,16357,9413,3,190902,270231
2025-02-21 17:58:05.112,56155,16333,9402,4,190957,270188
2025-02-21 17:58:05.243,56608,16481,9500,3,191631,270981
2025-02-21 17:58:05.421,57109,16768,9702,3,192681,272337
2025-02-21 17:58:05.423,56821,16766,9675,4,192547,272469
2025-02-21 17:58:05.564,56277,16479,9477,4,191684,271389
2025-02-21 17:58:05.605,56882,16488,9433,3,191484,270961
2025-02-21 17:58:05.786,56605,16443,9340,5,191250,270746
2025-02-21 17:58:05.808,57364,16674,9529,3,191853,271407
2025-02-21 17:58:05.930,57386,16827,9627,3,192287,272113
2025-02-21 17:58:06.140,56922,16728,9507,4,191773,271646
2025-02-21 17:58:06.143,56650,16632,9405,3,190953,270836
2025-02-21 17:58:06.350,56691,16647,9438,4,190761,270576
2025-02-21 17:58:06.352,56472,16480,9371,4,190844,270423
2025-02-21 17:58:06.515,56969,16568,9458,3,191671,271238
2025-02-21 17:58:06.518,57120,16725,9582,4,192379,272213
2025-02-21 17:58:06.652,56747,16609,9492,3,191924,271888
2025-02-21 17:58:06.828,56351,16481,9395,3,191499,271345
2025-02-21 17:58:06.831,56793,16548,9414,4,191526,271394
2025-02-21 17:58:06.989,56816,16579,9438,3,191519,271417
2025-02-21 17:58:06.996,57351,16733,9586,4,192097,272015
2025-02-21 17:58:07.164,57126,16616,9502,3,191918,271847
2025-02-21 17:58:07.196,56587,16377,9297,4,191001,270890
2025-02-21 17:58:07.355,56547,16286,9238,4,190269,269974
2025-02-21 17:58:07.400,56440,16256,9252,4,190309,269921
2025-02-21 17:58:07.531,56286,16255,9279,4,190582,270124
2025-02-21 17:58:07.665,56767,16504,9454,3,191656,271382
2025-02-21 17:58:07.700,56704,16601,9535,4,192109,272093
2025-02-21 17:58:07.844,56156,16277,9352,3,191266,271028
2025-02-21 17:58:07.891,56051,16088,9245,3,190854,270336
2025-02-21 17:58:07.991,56391,16140,9252,4,191043,270540
2025-02-21 17:58:08.163,56873,16280,9365,4,191586,271005
2025-02-21 17:58:08.193,57295,16551,9554,2,192374,272065
2025-02-21 17:58:08.301,57019,16553,9517,2,192052,271860
2025-02-21 17:58:08.481,56416,16326,9326,4,190997,270811
2025-02-21 17:58:08.496,56591,16133,9260,4,190290,269784
2025-02-21 17:58:08.624,56331,16055,9275,4,190700,270124
2025-02-21 17:58:08.801,56240,16008,9275,3,190791,270170
2025-02-21 17:58:08.803,56682,16232,9437,3,191785,271186
2025-02-21 17:58:09.001,56688,16360,9533,4,192172,271993
2025-02-21 17:58:09.003,56162,16231,9424,4,191643,271481
2025-02-21 17:58:09.179,56356,16149,9393,3,191323,270980
2025-02-21 17:58:09.192,56094,15974,9297,4,191086,270663
2025-02-21 17:58:09.328,56729,16085,9402,4,191494,270894
2025-02-21 17:58:09.506,56882,16244,9501,4,192004,271560
2025-02-21 17:58:09.508,56617,16173,9412,4,191515,271128
2025-02-21 17:58:09.700,56106,16005,9252,4,190565,270159
2025-02-21 17:58:09.702,56274,16018,9285,3,190242,269714
2025-02-21 17:58:09.866,55910,15827,9238,3,190273,269489
2025-02-21 17:58:09.875,56379,15918,9336,3,191193,270330
2025-02-21 17:58:10.012,56669,16179,9528,4,192274,271730
2025-02-21 17:58:10.183,56493,16187,9527,3,192014,271711
2025-02-21 17:58:10.186,55934,16018,9396,4,191406,270991
2025-02-21 17:58:10.325,56316,16078,9415,3,191485,271061
2025-02-21 17:58:10.503,56413,16085,9405,4,191327,270901
2025-02-21 17:58:10.507,57026,16195,9542,3,192098,271596
2025-02-21 17:58:10.643,56998,16226,9562,4,192087,271810
2025-02-21 17:58:10.672,56546,16074,9413,3,191275,270893
2025-02-21 17:58:10.859,56280,15947,9311,3,190429,269973
2025-02-21 17:58:10.872,56626,16030,9376,4,190528,270026
2025-02-21 17:58:11.012,56168,16013,9376,5,190826,270336
2025-02-21 17:58:11.185,56702,16203,9500,2,191476,271035
2025-02-21 17:58:11.188,56708,16223,9560,4,191925,271576
2025-02-21 17:58:11.386,56442,16064,9454,4,191416,271182
2025-02-21 17:58:11.388,56283,15973,9378,3,191107,270649
2025-02-21 17:58:11.554,56491,16023,9377,3,191242,270845
2025-02-21 17:58:11.567,56851,16133,9446,4,191387,270888
2025-02-21 17:58:11.696,57101,16373,9603,4,192160,271789
2025-02-21 17:58:11.870,56956,16435,9612,4,191997,271750
2025-02-21 17:58:11.873,56505,16138,9405,3,191048,270643
2025-02-21 17:58:12.014,56505,15992,9324,4,190331,269626
2025-02-21 17:58:12.188,56413,16006,9347,3,190610,269858
2025-02-21 17:58:12.190,56409,16047,9380,4,190944,270151
2025-02-21 17:58:12.332,56970,16336,9580,3,192091,271432
2025-02-21 17:58:12.363,56943,16506,9683,3,192468,272318
2025-02-21 17:58:12.554,56166,16341,9557,3,191807,271675
2025-02-21 17:58:12.567,56474,16358,9607,4,191808,271558
2025-02-21 17:58:12.687,56293,16216,9520,5,191883,271709
2025-02-21 17:58:12.860,56992,16306,9586,4,191832,271540
2025-02-21 17:58:12.868,57064,16438,9683,3,192164,271932
2025-02-21 17:58:13.097,56583,16326,9558,4,191732,271482
2025-02-21 17:58:13.100,56266,16205,9427,4,190773,270567
2025-02-21 17:58:13.322,56465,16278,9473,4,190634,270274
2025-02-21 17:58:13.325,56204,16201,9429,4,190542,270061
2025-02-21 17:58:13.359,56585,16215,9467,3,191114,270553
2025-02-21 17:58:13.488,56836,16412,9613,4,192133,271795
2025-02-21 17:58:13.698,56631,16416,9609,4,192153,272065
2025-02-21 17:58:13.701,56103,16248,9477,4,191518,271343
2025-02-21 17:58:13.870,56711,16360,9526,3,191638,271430
2025-02-21 17:58:13.874,56635,16401,9515,3,191735,271576
2025-02-21 17:58:14.066,57252,16564,9657,4,192321,272156
2025-02-21 17:58:14.069,57061,16502,9622,3,192263,272088
2025-02-21 17:58:14.259,56530,16304,9463,4,191563,271279
2025-02-21 17:58:14.261,56350,16168,9346,4,190649,270226
2025-02-21 17:58:14.440,56590,16254,9405,3,190789,270376
2025-02-21 17:58:14.458,56243,16250,9406,3,190967,270551
2025-02-21 17:58:14.585,56802,16469,9553,4,191770,271460
2025-02-21 17:58:14.761,56768,16534,9618,4,192183,272022
2025-02-21 17:58:14.764,56403,16331,9492,4,191774,271676
2025-02-21 17:58:14.970,56011,16138,9367,3,191210,270840
2025-02-21 17:58:14.972,56509,16251,9421,3,191563,271337
2025-02-21 17:58:15.145,56634,16293,9437,3,191641,271403
2025-02-21 17:58:15.155,57069,16518,9587,3,192287,272138
2025-02-21 17:58:15.290,56707,16509,9539,4,191975,271910
2025-02-21 17:58:15.474,56039,16292,9374,3,190890,270598
2025-02-21 17:58:15.477,56150,16219,9286,3,190224,269693
2025-02-21 17:58:15.622,56199,16267,9281,3,190311,269767
2025-02-21 17:58:15.659,56379,16337,9273,4,190542,270065
2025-02-21 17:58:15.802,57390,16677,9488,4,191603,271385
2025-02-21 17:58:15.945,57510,16892,9630,4,192186,272374
2025-02-21 17:58:15.960,56736,16705,9476,3,191450,271736
2025-02-21 17:58:16.178,56788,16547,9411,4,191146,271258
2025-02-21 17:58:16.180,56658,16457,9419,4,191598,271717
2025-02-21 17:58:16.340,57016,16566,9545,4,192254,272322
2025-02-21 17:58:16.363,57002,16640,9593,3,192460,272735
2025-02-21 17:58:16.518,56589,16554,9494,4,192038,272273
2025-02-21 17:58:16.556,56065,16361,9348,2,191078,271293
2025-02-21 17:58:16.659,56103,16304,9324,3,190602,270646
2025-02-21 17:58:16.833,56053,16184,9296,3,190810,270620
2025-02-21 17:58:16.847,56681,16384,9452,4,192062,271954
2025-02-21 17:58:16.975,56845,16579,9588,3,192767,272942
2025-02-21 17:58:17.152,56369,16407,9453,3,191956,272171
2025-02-21 17:58:17.154,55879,16217,9300,3,191067,271061
2025-02-21 17:58:17.297,56575,16394,9394,4,191448,271340
2025-02-21 17:58:17.477,56248,16264,9309,4,191250,271150
2025-02-21 17:58:17.481,56843,16323,9388,3,191702,271492
2025-02-21 17:58:17.618,56911,16464,9485,4,192198,272217
2025-02-21 17:58:17.651,56370,16325,9358,3,191739,271752
2025-02-21 17:58:17.840,55886,16100,9197,4,190722,270614
2025-02-21 17:58:17.842,56116,16133,9277,4,190626,270362
2025-02-21 17:58:17.984,55607,16052,9251,4,190777,270442
2025-02-21 17:58:18.156,56220,16090,9328,4,191401,270897
2025-02-21 17:58:18.159,56461,16261,9473,4,192430,272237
2025-02-21 17:58:18.362,56251,16221,9438,3,192124,272213
2025-02-21 17:58:18.364,55805,15975,9203,4,190618,270562
2025-02-21 17:58:18.528,56672,16104,9192,4,190392,270226
2025-02-21 17:58:18.530,56624,16183,9187,3,190370,270179
2025-02-21 17:58:18.667,57198,16399,9374,3,191180,271073
2025-02-21 17:58:18.835,57004,16321,9347,3,191332,271331
2025-02-21 17:58:18.837,56498,16098,9154,3,190549,270419
2025-02-21 17:58:18.978,56186,15951,9042,4,189730,269366
2025-02-21 17:58:19.154,55974,15912,9046,2,189436,268931
2025-02-21 17:58:19.156,56054,16002,9137,3,190025,269445
2025-02-21 17:58:19.296,56754,16281,9337,3,191327,271016
2025-02-21 17:58:19.327,56743,16253,9366,4,191614,271378
2025-02-21 17:58:19.519,56269,16035,9230,4,191062,270792
2025-02-21 17:58:19.521,56083,15918,9153,2,190618,270122
2025-02-21 17:58:19.665,56114,15926,9137,3,190761,270270
2025-02-21 17:58:19.834,56527,16023,9219,3,190989,270400
2025-02-21 17:58:19.837,56946,16297,9405,3,191911,271530
2025-02-21 17:58:20.050,56725,16222,9341,3,191542,271206
2025-02-21 17:58:20.053,56162,15881,9111,3,190452,269856
2025-02-21 17:58:20.223,56058,15761,9033,3,189726,268897
2025-02-21 17:58:20.226,56012,15793,9089,3,190015,269056
2025-02-21 17:58:20.381,56179,15895,9188,3,190819,269966
2025-02-21 17:58:20.411,56637,16170,9375,3,191699,271142
2025-02-21 17:58:20.573,56694,16282,9452,3,191882,271623
2025-02-21 17:58:20.614,56068,15935,9229,4,190798,270283
2025-02-21 17:58:20.738,56360,15875,9171,3,190603,269812
2025-02-21 17:58:20.936,56087,15851,9149,3,190947,270180
2025-02-21 17:58:20.939,56723,15981,9265,5,191227,270438
2025-02-21 17:58:21.185,56983,16198,9429,2,191879,271310
2025-02-21 17:58:21.188,56567,16133,9338,3,191458,270912
2025-02-21 17:58:21.207,56140,15849,9129,3,190293,269635
2025-02-21 17:58:21.402,56128,15680,9064,4,189687,268692
2025-02-21 17:58:21.411,55889,15675,9089,3,189932,268811
2025-02-21 17:58:21.560,56173,15803,9188,4,190721,269708
2025-02-21 17:58:21.813,56545,16079,9374,4,191685,270911
2025-02-21 17:58:21.816,56497,16192,9441,3,191858,271427
2025-02-21 17:58:21.819,55900,16006,9271,4,191021,270526
2025-02-21 17:58:21.959,56484,15926,9247,3,190923,270266
2025-02-21 17:58:22.134,56177,15835,9200,3,191032,270310
2025-02-21 17:58:22.136,56976,16078,9401,3,191691,271023
2025-02-21 17:58:22.283,56884,16209,9493,4,192027,271539
2025-02-21 17:58:22.306,56514,16106,9363,4,191334,270879
2025-02-21 17:58:22.454,56157,15984,9236,4,190334,269789
2025-02-21 17:58:22.595,56357,16010,9272,4,190242,269604
2025-02-21 17:58:22.606,56006,15849,9233,3,190306,269523
2025-02-21 17:58:22.775,56528,15997,9356,4,191155,270465
2025-02-21 17:58:22.811,56608,16184,9493,4,191934,271454
2025-02-21 17:58:22.967,56270,16117,9427,4,191580,271254
2025-02-21 17:58:23.002,56077,16042,9350,3,190977,270518
2025-02-21 17:58:23.149,56354,16112,9359,4,191053,270710
2025-02-21 17:58:23.294,56393,16125,9367,5,190941,270553
2025-02-21 17:58:23.303,56680,16137,9447,4,191472,271032
2025-02-21 17:58:23.551,56605,16109,9403,4,191225,270844
2025-02-21 17:58:23.553,56383,15989,9276,4,190478,269951
2025-02-21 17:58:23.696,55901,15884,9183,4,189886,269258
2025-02-21 17:58:23.706,55891,15903,9196,4,189698,268917
2025-02-21 17:58:23.870,55958,16002,9275,2,190316,269531
2025-02-21 17:58:23.907,56679,16324,9517,4,191621,271186
2025-02-21 17:58:24.009,56676,16349,9595,5,192201,271995
2025-02-21 17:58:24.178,56020,16082,9388,3,191322,271124
2025-02-21 17:58:24.198,56395,16105,9396,4,191081,270664
2025-02-21 17:58:24.318,56010,16090,9340,4,191323,271120
2025-02-21 17:58:24.489,56646,16253,9461,4,191422,271124
2025-02-21 17:58:24.502,56542,16390,9550,3,191827,271688
2025-02-21 17:58:24.681,56465,16404,9537,4,191545,271376
2025-02-21 17:58:24.701,55744,16030,9313,3,190716,270396
2025-02-21 17:58:24.856,55365,15817,9213,4,189993,269519
2025-02-21 17:58:24.894,55180,15839,9278,4,190181,269518
2025-02-21 17:58:24.999,55852,16079,9456,4,191296,270930
2025-02-21 17:58:25.196,56265,16378,9655,4,192302,272313
2025-02-21 17:58:25.199,56001,16375,9622,4,191885,271963
2025-02-21 17:58:25.339,55346,16154,9463,4,191303,271142
2025-02-21 17:58:25.566,55575,16077,9457,4,191703,271356
2025-02-21 17:58:25.570,55399,16054,9484,3,192090,272024
2025-02-21 17:58:25.598,55688,16173,9589,5,192405,272300
2025-02-21 17:58:25.735,55870,16292,9664,4,192635,272547
2025-02-21 17:58:25.912,55563,16276,9625,3,192497,272431
2025-02-21 17:58:25.914,54961,16084,9425,4,191527,271178
2025-02-21 17:58:26.076,55400,16183,9512,2,191682,271422
2025-02-21 17:58:26.094,55469,16074,9486,4,191704,271365
2025-02-21 17:58:26.326,56328,16319,9684,5,192634,272403
2025-02-21 17:58:26.328,56298,16419,9737,3,192877,272860
2025-02-21 17:58:26.482,55645,16200,9538,5,191993,271776
2025-02-21 17:58:26.493,55945,16214,9547,3,191723,271345
2025-02-21 17:58:26.667,55513,16214,9520,3,192381,272167
2025-02-21 17:58:26.685,56459,16468,9679,3,192622,272633
2025-02-21 17:58:26.811,56481,16423,9680,3,192751,272770
2025-02-21 17:58:27.050,56470,16390,9652,3,192591,272494
2025-02-21 17:58:27.052,55748,16146,9448,3,191690,271464
2025-02-21 17:58:27.090,55460,15960,9294,5,190689,270096
2025-02-21 17:58:27.194,56044,16167,9478,4,191700,271254
2025-02-21 17:58:27.378,56745,16513,9723,3,193084,273049
2025-02-21 17:58:27.381,57329,16851,9953,3,193876,274138
2025-02-21 17:58:27.525,56712,16575,9758,4,192926,273007
2025-02-21 17:58:27.709,55963,16224,9496,4,191868,271686
2025-02-21 17:58:27.712,56505,16370,9612,4,192694,272553
2025-02-21 17:58:27.853,57060,16655,9829,3,193652,273831
2025-02-21 17:58:27.885,57115,16746,9871,3,193556,273751
2025-02-21 17:58:28.093,56512,16649,9755,3,193174,273306
2025-02-21 17:58:28.095,55963,16464,9589,4,192117,272034
2025-02-21 17:58:28.231,55826,16219,9438,4,191207,270859
2025-02-21 17:58:28.411,55929,16147,9415,4,191146,270698
2025-02-21 17:58:28.413,56851,16490,9667,3,192713,272528
2025-02-21 17:58:28.549,57333,16818,9886,4,193840,274021
2025-02-21 17:58:28.581,56698,16673,9722,4,193113,273335
2025-02-21 17:58:28.804,56299,16554,9591,3,192449,272493
2025-02-21 17:58:28.806,56623,16663,9674,4,192812,272932
2025-02-21 17:58:28.945,57209,16788,9806,4,193347,273569
2025-02-21 17:58:28.985,57370,16857,9870,3,193748,273994
2025-02-21 17:58:29.128,56809,16727,9740,4,193150,273318
2025-02-21 17:58:29.265,55989,16470,9525,4,192161,272188
2025-02-21 17:58:29.278,56218,16449,9525,4,191743,271646
2025-02-21 17:58:29.445,56115,16479,9581,3,192146,272055
2025-02-21 17:58:29.478,56809,16688,9727,3,192964,273009
2025-02-21 17:58:29.594,56942,16733,9773,3,193433,273588
2025-02-21 17:58:29.830,56351,16502,9580,4,192718,272889
2025-02-21 17:58:29.832,55868,16304,9406,3,191993,271967
2025-02-21 17:58:29.974,56290,16423,9514,4,192480,272477
2025-02-21 17:58:29.981,57271,16810,9808,4,193663,273868
2025-02-21 17:58:30.155,57444,17079,9972,4,194327,274790
2025-02-21 17:58:30.181,56467,16815,9700,3,193257,273566
2025-02-21 17:58:30.355,56023,16523,9462,2,192073,272057
2025-02-21 17:58:30.373,55927,16441,9450,4,192101,272011
2025-02-21 17:58:30.538,56330,16525,9545,3,192547,272524
2025-02-21 17:58:30.574,56951,16806,9757,4,193600,273709
2025-02-21 17:58:30.691,56545,16785,9705,3,193328,273631
2025-02-21 17:58:30.862,55806,16608,9530,4,192653,272556
2025-02-21 17:58:30.878,56256,16588,9518,4,192767,272577
2025-02-21 17:58:31.012,56240,16529,9513,4,192955,272907
2025-02-21 17:58:31.182,56727,16685,9615,4,193028,273021
2025-02-21 17:58:31.184,56473,16699,9592,4,192919,272954
2025-02-21 17:58:31.332,55804,16485,9394,4,192099,271965
2025-02-21 17:58:31.369,55656,16410,9305,3,191224,270880
2025-02-21 17:58:31.551,55651,16402,9335,3,191361,270951
2025-02-21 17:58:31.572,56343,16434,9390,4,192120,271713
2025-02-21 17:58:31.695,56933,16722,9594,4,193130,272921
2025-02-21 17:58:31.873,56466,16668,9529,4,192869,272772
2025-02-21 17:58:31.876,55894,16484,9367,3,192197,271856
2025-02-21 17:58:32.090,56079,16555,9414,3,192418,272236
2025-02-21 17:58:32.092,56681,16777,9586,3,192803,272774
2025-02-21 17:58:32.258,57102,16944,9733,3,193641,273527
2025-02-21 17:58:32.265,56623,16785,9598,3,193289,273088
2025-02-21 17:58:32.403,55825,16511,9349,2,192207,271796
2025-02-21 17:58:32.577,55670,16450,9299,4,191535,270973
2025-02-21 17:58:32.580,55930,16517,9384,4,192022,271374
2025-02-21 17:58:32.727,56934,16883,9675,3,193571,273183
2025-02-21 17:58:32.770,57067,17112,9835,3,194168,274216
2025-02-21 17:58:32.904,56120,16692,9520,4,193018,272732
2025-02-21 17:58:33.049,55954,16537,9408,3,192568,272011
2025-02-21 17:58:33.061,56213,16619,9484,5,192984,272636
2025-02-21 17:58:33.282,57019,16889,9696,5,193615,273393
2025-02-21 17:58:33.284,57020,17047,9793,4,194014,273941
2025-02-21 17:58:33.430,56420,16922,9631,3,193376,273130
2025-02-21 17:58:33.465,55823,16694,9422,4,192357,271842
2025-02-21 17:58:33.604,55844,16514,9339,4,191717,271066
2025-02-21 17:58:33.748,56481,16609,9462,3,192536,271945
2025-02-21 17:58:33.769,57359,16984,9752,3,193954,273718
2025-02-21 17:58:33.930,57183,17076,9807,3,194022,274135
2025-02-21 17:58:33.961,56206,16817,9569,3,193040,272806
2025-02-21 17:58:34.078,56554,16902,9608,3,192970,272781
2025-02-21 17:58:34.261,56760,17012,9697,4,193404,273401
2025-02-21 17:58:34.264,57587,17130,9855,5,194126,274057
2025-02-21 17:58:34.409,57365,17126,9856,4,194192,274304
2025-02-21 17:58:34.587,56604,16881,9620,3,193160,273026
2025-02-21 17:58:34.589,56269,16756,9481,3,192146,271799
2025-02-21 17:58:34.735,56275,16794,9541,3,192090,271655
2025-02-21 17:58:34.757,56826,16954,9691,4,192945,272706
2025-02-21 17:58:34.912,57411,17229,9903,3,193975,273971
2025-02-21 17:58:34.956,57026,17074,9813,2,193595,273633
2025-02-21 17:58:35.132,56355,16729,9592,4,192741,272446
2025-02-21 17:58:35.157,56433,16642,9546,2,192462,272106
2025-02-21 17:58:35.318,56679,16757,9645,4,192905,272633
2025-02-21 17:58:35.360,57347,17027,9850,3,193818,273616
2025-02-21 17:58:35.538,57071,17090,9859,4,193896,273802
2025-02-21 17:58:35.561,56396,16893,9657,3,192844,272608
2025-02-21 17:58:35.710,56089,16743,9537,4,191964,271377
2025-02-21 17:58:35.752,56164,16580,9526,4,191899,271131
2025-02-21 17:58:35.861,56902,16749,9707,3,192975,272411
2025-02-21 17:58:36.041,57500,17094,9972,3,194246,273976
2025-02-21 17:58:36.053,56898,17018,9907,5,193976,273797
2025-02-21 17:58:36.182,56288,16847,9759,4,193189,272854
2025-02-21 17:58:36.366,56711,16942,9828,4,193406,273073
2025-02-21 17:58:36.369,57180,17176,10010,3,194221,274124
2025-02-21 17:58:36.545,57233,17144,10025,3,194185,274106
2025-02-21 17:58:36.549,56868,16888,9839,4,193203,272830
2025-02-21 17:58:36.726,56349,16693,9676,4,192424,271916
2025-02-21 17:58:36.749,56220,16601,9611,4,191710,271032
2025-02-21 17:58:36.921,56339,16614,9686,3,192003,271219
2025-02-21 17:58:36.952,56996,16890,9904,2,193190,272718
2025-02-21 17:58:37.099,57248,17174,10085,4,193983,274037
2025-02-21 17:58:37.320,56551,16912,9885,3,193096,273069
2025-02-21 17:58:37.322,56226,16610,9706,4,192294,271963
2025-02-21 17:58:37.344,56570,16647,9732,4,192453,272153
2025-02-21 17:58:37.489,57051,16801,9850,4,192944,272593
2025-02-21 17:58:37.637,57144,16944,9934,4,193424,273135
2025-02-21 17:58:37.645,56762,16864,9829,3,192813,272528
2025-02-21 17:58:37.813,56297,16727,9681,4,191921,271551
2025-02-21 17:58:37.848,56173,16629,9622,4,191379,270834
2025-02-21 17:58:37.956,56400,16496,9610,5,191734,270917
2025-02-21 17:58:38.138,57004,16761,9812,3,193157,272501
2025-02-21 17:58:38.148,57059,16946,9939,3,193809,273504
2025-02-21 17:58:38.281,56330,16736,9755,4,192993,272573
2025-02-21 17:58:38.462,56358,16687,9689,4,192432,271842
2025-02-21 17:58:38.464,56619,16810,9762,4,192754,272306
2025-02-21 17:58:38.658,56929,16898,9838,4,193016,272626
2025-02-21 17:58:38.661,56853,16781,9750,4,192744,272295
2025-02-21 17:58:38.833,56331,16590,9566,3,192034,271447
2025-02-21 17:58:38.835,55988,16438,9432,3,191239,270489
2025-02-21 17:58:39.037,56136,16398,9408,3,191088,270217
2025-02-21 17:58:39.039,56254,16473,9494,3,191721,270777
2025-02-21 17:58:39.211,56810,16772,9709,4,192885,272123
2025-02-21 17:58:39.228,56632,16757,9699,4,192903,272207
2025-02-21 17:58:39.360,55868,16413,9461,3,192084,271071
2025-02-21 17:58:39.539,55929,16303,9375,3,191610,270422
2025-02-21 17:58:39.542,55976,16368,9440,3,192181,270975
2025-02-21 17:58:39.685,56849,16664,9641,4,193174,272036
2025-02-21 17:58:39.732,56887,16821,9682,4,193241,272259
2025-02-21 17:58:39.858,56345,16671,9495,3,192342,271264
2025-02-21 17:58:40.002,55924,16357,9260,4,191169,269672
2025-02-21 17:58:40.032,56000,16259,9271,3,191310,269629
2025-02-21 17:58:40.233,56495,16466,9468,3,192536,270960
2025-02-21 17:58:40.235,57017,16799,9699,4,193496,272296
2025-02-21 17:58:40.375,56534,16730,9603,3,193018,271930
2025-02-21 17:58:40.554,55972,16560,9438,4,192198,270927
2025-02-21 17:58:40.556,56493,16616,9492,4,192322,270944
2025-02-21 17:58:40.758,56663,16620,9563,4,192934,271591
2025-02-21 17:58:40.760,56817,16719,9636,4,193206,272026
2025-02-21 17:58:40.929,56453,16600,9499,4,192523,271254
2025-02-21 17:58:40.931,56099,16490,9378,3,191925,270538
2025-02-21 17:58:41.074,55948,16444,9334,3,191426,269939
2025-02-21 17:58:41.112,55950,16397,9342,4,191407,269811
2025-02-21 17:58:41.249,56502,16443,9440,4,192260,270584
2025-02-21 17:58:41.393,56801,16631,9593,4,193139,271722
2025-02-21 17:58:41.411,56269,16503,9477,3,192667,271238
2025-02-21 17:58:41.569,55871,16347,9366,3,192046,270413
2025-02-21 17:58:41.616,56155,16393,9397,3,192058,270335
2025-02-21 17:58:41.774,56512,16577,9542,4,192746,271177
2025-02-21 17:58:41.803,56783,16658,9621,3,192923,271396
2025-02-21 17:58:41.948,56264,16401,9444,3,192406,270701
2025-02-21 17:58:42.086,55440,16095,9225,3,191516,269614
2025-02-21 17:58:42.108,55787,16068,9211,3,191149,269099
2025-02-21 17:58:42.266,55922,16186,9330,3,191937,269843
2025-02-21 17:58:42.308,56534,16510,9547,3,193103,271161
2025-02-21 17:58:42.411,56661,16701,9671,3,193452,271862
2025-02-21 17:58:42.589,56012,16348,9457,3,192609,270746
2025-02-21 17:58:42.612,56089,16197,9368,3,192198,270153
2025-02-21 17:58:42.731,56059,16209,9402,3,192424,270438
2025-02-21 17:58:42.905,56661,16400,9541,3,193030,271097
2025-02-21 17:58:42.907,56511,16437,9516,4,192972,271157
2025-02-21 17:58:43.048,56066,16317,9377,3,192191,270325
2025-02-21 17:58:43.224,55766,16118,9253,3,191368,269227
2025-02-21 17:58:43.226,55822,15931,9236,4,191382,269051
2025-02-21 17:58:43.369,56184,16052,9374,5,192353,270065
2025-02-21 17:58:43.408,56660,16348,9589,4,193376,271440
2025-02-21 17:58:43.590,56373,16340,9563,4,193209,271321
2025-02-21 17:58:43.600,55873,16192,9423,3,192527,270577
2025-02-21 17:58:43.762,56138,16242,9452,3,192448,270475
2025-02-21 17:58:43.800,56423,16212,9502,4,192752,270686
2025-02-21 17:58:43.931,56799,16293,9592,3,193366,271290
2025-02-21 17:58:44.074,56435,16237,9514,3,193096,271073
2025-02-21 17:58:44.104,55972,16068,9354,3,192225,270096
2025-02-21 17:58:44.312,56164,16064,9346,4,191870,269691
2025-02-21 17:58:44.314,55938,16064,9382,4,192067,269801
2025-02-21 17:58:44.452,56655,16316,9577,3,193126,270925
2025-02-21 17:58:44.629,56846,16397,9693,4,193779,271827
2025-02-21 17:58:44.631,56321,16166,9548,3,193263,271277
2025-02-21 17:58:44.767,55942,15985,9418,4,192461,270333
2025-02-21 17:58:44.787,56028,15990,9430,4,192508,270332
2025-02-21 17:58:44.942,56842,16257,9633,4,193409,271259
2025-02-21 17:58:44.987,56982,16479,9758,3,194082,272244
2025-02-21 17:58:45.091,56381,16316,9575,3,193169,271265
2025-02-21 17:58:45.267,56014,16020,9421,3,192203,270034
2025-02-21 17:58:45.291,56067,15902,9376,4,191902,269591
2025-02-21 17:58:45.459,56254,15975,9463,3,192515,270215
2025-02-21 17:58:45.483,56848,16249,9674,3,193620,271574
2025-02-21 17:58:45.660,56781,16375,9756,3,193938,272112
2025-02-21 17:58:45.684,56146,16197,9587,3,193093,271188
2025-02-21 17:58:45.841,56401,16203,9567,4,192742,270762
2025-02-21 17:58:45.888,56670,16163,9617,3,193325,271308
2025-02-21 17:58:46.167,57299,16365,9788,3,194155,272315
2025-02-21 17:58:46.175,56970,16357,9748,4,193897,272117
2025-02-21 17:58:46.182,56351,16180,9579,4,192977,271091
2025-02-21 17:58:46.368,56257,16119,9525,3,192280,270283
2025-02-21 17:58:46.379,56232,16161,9612,3,192609,270607
2025-02-21 17:58:46.608,56690,16315,9736,3,193384,271486
2025-02-21 17:58:46.613,57035,16375,9826,3,193934,272214
2025-02-21 17:58:46.875,56431,16183,9656,3,193257,271602
2025-02-21 17:58:46.879,56174,16053,9546,5,192499,270661
2025-02-21 17:58:46.884,56703,16165,9606,3,192841,270973
2025-02-21 17:58:47.126,56920,16320,9709,3,193470,271755
2025-02-21 17:58:47.128,56944,16433,9757,4,193534,271852
2025-02-21 17:58:47.268,56534,16288,9646,3,193021,271226
2025-02-21 17:58:47.274,56040,15947,9432,3,192036,270005
2025-02-21 17:58:47.444,56000,15870,9383,3,191747,269535
2025-02-21 17:58:47.476,56487,16043,9532,3,192730,270531
2025-02-21 17:58:47.641,57095,16363,9770,3,194081,272147
2025-02-21 17:58:47.679,57041,16505,9854,4,194323,272703
2025-02-21 17:58:47.822,56233,16294,9633,3,193210,271550
2025-02-21 17:58:47.964,56556,16234,9607,3,192955,271186
2025-02-21 17:58:47.971,56785,16240,9675,4,193568,271844
2025-02-21 17:58:48.141,57154,16381,9757,3,193873,272184
2025-02-21 17:58:48.170,56717,16311,9656,3,193449,271814
2025-02-21 17:58:48.287,56273,16152,9493,3,192497,270717
2025-02-21 17:58:48.472,56349,16144,9475,3,192164,270304
2025-02-21 17:58:48.475,56197,16166,9515,5,192312,270359
2025-02-21 17:58:48.618,56825,16266,9643,4,193236,271312
2025-02-21 17:58:48.667,57014,16371,9744,3,193952,272282
2025-02-21 17:58:48.863,56442,16224,9608,3,193365,271807
2025-02-21 17:58:48.866,56252,16060,9465,3,192539,270719
2025-02-21 17:58:49.012,56382,16164,9540,3,193070,271298
2025-02-21 17:58:49.059,56842,16352,9656,3,193397,271716
2025-02-21 17:58:49.195,56755,16375,9645,2,193280,271599
2025-02-21 17:58:49.413,56279,16078,9428,3,192427,270528
2025-02-21 17:58:49.416,56013,15872,9241,4,191381,269283
2025-02-21 17:58:49.598,56179,15893,9259,4,191362,269162
2025-02-21 17:58:49.601,56615,16088,9421,3,192408,270246
2025-02-21 17:58:49.750,57213,16435,9655,3,193575,271741
2025-02-21 17:58:49.755,56936,16487,9645,4,193390,271833
2025-02-21 17:58:49.940,56272,16167,9428,4,192410,270665
2025-02-21 17:58:49.955,56490,16039,9365,3,192189,270190
2025-02-21 17:58:50.090,56745,16177,9495,3,193009,270981
2025-02-21 17:58:50.277,57378,16477,9702,3,193989,272192
2025-02-21 17:58:50.280,56981,16470,9637,5,193582,271869
2025-02-21 17:58:50.492,56442,16328,9466,3,192587,270871
2025-02-21 17:58:50.494,56542,16290,9434,4,192058,270258
2025-02-21 17:58:50.672,56497,16153,9437,4,192320,270410
2025-02-21 17:58:50.674,56957,16288,9551,4,193065,271226
2025-02-21 17:58:50.822,57105,16448,9633,4,193393,271697
2025-02-21 17:58:50.851,56490,16270,9469,3,192666,270934
2025-02-21 17:58:51.006,56343,16179,9394,4,192164,270237
2025-02-21 17:58:51.050,56464,16232,9435,4,192438,270495
2025-02-21 17:58:51.154,57069,16288,9517,5,193011,271012
2025-02-21 17:58:51.327,57215,16390,9593,3,193468,271570
2025-02-21 17:58:51.355,56770,16285,9463,4,192872,270950
2025-02-21 17:58:51.467,56224,16049,9252,4,191674,269574
2025-02-21 17:58:51.644,56434,16046,9274,4,191523,269298
2025-02-21 17:58:51.647,56680,16249,9460,4,192726,270513
2025-02-21 17:58:51.805,57221,16458,9641,4,193609,271568
2025-02-21 17:58:51.846,57068,16419,9627,4,193485,271560
2025-02-21 17:58:51.998,56316,16168,9410,3,192608,270550
2025-02-21 17:58:52.142,56652,16161,9386,4,192325,270184
2025-02-21 17:58:52.150,56821,16297,9505,3,193037,271050
2025-02-21 17:58:52.368,57601,16632,9743,4,194043,272171
2025-02-21 17:58:52.370,57227,16642,9721,4,193861,272066
2025-02-21 17:58:52.515,56591,16291,9494,4,192845,270652
2025-02-21 17:58:52.555,56576,16157,9416,4,192414,270018
2025-02-21 17:58:52.691,56486,16114,9410,3,192318,269831
2025-02-21 17:58:52.888,56953,16295,9553,4,193181,270787
2025-02-21 17:58:52.890,57383,16585,9746,3,194031,271966
2025-02-21 17:58:53.063,56935,16546,9678,5,193658,271793
2025-02-21 17:58:53.065,56581,16258,9503,2,192707,270654
2025-02-21 17:58:53.210,56495,16104,9433,4,192440,270120
2025-02-21 17:58:53.246,57135,16316,9608,3,193465,271230
2025-02-21 17:58:53.392,57486,16567,9775,3,194180,272195
2025-02-21 17:58:53.439,56998,16491,9674,4,193662,271659
2025-02-21 17:58:53.543,56417,16322,9504,4,192648,270520
2025-02-21 17:58:53.716,56446,16234,9481,4,192150,269916
2025-02-21 17:58:53.742,56905,16239,9596,4,193073,270748
2025-02-21 17:58:53.861,57467,16533,9845,3,194359,272289
2025-02-21 17:58:54.093,57099,16520,9817,4,194050,272181
2025-02-21 17:58:54.096,56489,16362,9678,4,193282,271346
2025-02-21 17:58:54.242,56558,16345,9656,3,192941,270956
2025-02-21 17:58:54.244,57029,16563,9823,3,193791,271958
2025-02-21 17:58:54.416,57544,16730,9990,4,194506,272945
2025-02-21 17:58:54.438,57105,16538,9861,3,193862,272199
2025-02-21 17:58:54.613,56519,16330,9679,4,192965,271155
2025-02-21 17:58:54.637,56365,16233,9592,4,192225,270230
2025-02-21 17:58:54.787,56518,16262,9649,4,192494,270463
2025-02-21 17:58:54.831,57162,16570,9897,3,193831,272070
2025-02-21 17:58:54.933,57470,16843,10077,3,194482,273105
