Timestamp,PPG1,PPG2,PPG3,PPG4,PPG5,PPG6
2025-02-21 16:04:58.712,24,30,30,2,51,43
2025-02-21 16:04:58.895,25,30,30,3,49,42
2025-02-21 16:04:58.900,25,30,32,3,48,42
2025-02-21 16:04:58.903,23,32,31,2,48,42
2025-02-21 16:04:59.397,31,38,39,2,62,50
2025-02-21 16:04:59.400,1544,974,771,2,2505,1451
2025-02-21 16:04:59.402,6290,3941,2924,3,14877,8199
2025-02-21 16:04:59.405,40051,29029,23410,3,71709,43617
2025-02-21 16:04:59.407,174098,178540,161994,2,360112,286898
2025-02-21 16:04:59.531,249227,231360,207397,4,560298,481763
2025-02-21 16:04:59.642,150267,103763,89575,6,580316,446211
2025-02-21 16:04:59.775,166588,99572,71620,5,582318,445485
2025-02-21 16:04:59.797,160370,95860,62925,6,582261,431929
2025-02-21 16:04:59.896,158112,91061,58918,5,571954,421427
2025-02-21 16:05:00.016,155253,86801,55870,4,556570,411983
2025-02-21 16:05:00.127,153609,83846,53772,8,546012,405714
2025-02-21 16:05:00.254,152544,81766,52215,8,538279,401211
2025-02-21 16:05:00.299,151472,80007,50843,6,530621,396654
2025-02-21 16:05:00.388,150695,78769,49815,5,524516,393003
2025-02-21 16:05:00.495,150410,78173,49242,6,521718,391915
2025-02-21 16:05:00.603,150360,77886,49057,12,519722,391151
2025-02-21 16:05:00.730,150459,78013,49123,8,518774,391045
2025-02-21 16:05:00.840,150490,78210,49172,13,518544,391407
2025-02-21 16:05:00.981,150476,77941,48954,12,517735,391196
2025-02-21 16:05:00.991,149995,76968,48238,12,514489,389093
2025-02-21 16:05:01.099,149791,76107,47628,6,512188,387802
2025-02-21 16:05:01.228,150000,75987,47587,7,511430,387724
2025-02-21 16:05:01.336,150170,76215,47668,15,511070,387923
2025-02-21 16:05:01.460,149962,76326,47667,8,509121,386509
2025-02-21 16:05:01.488,150074,76633,47891,4,510148,387775
2025-02-21 16:05:01.588,150141,77090,48170,8,510679,388615
2025-02-21 16:05:01.696,150548,77585,48542,8,511927,389903
2025-02-21 16:05:01.803,151085,78174,48936,7,514009,391901
2025-02-21 16:05:01.946,151776,78743,49463,12,515833,393687
2025-02-21 16:05:01.991,152613,79578,50073,11,518148,396045
2025-02-21 16:05:02.091,153380,80361,50587,6,520205,398269
2025-02-21 16:05:02.186,154211,81307,51188,7,522684,400805
2025-02-21 16:05:02.294,152520,81809,51489,7,518306,396660
2025-02-21 16:05:02.420,151676,82062,51745,5,515913,394513
2025-02-21 16:05:02.528,152839,82632,52254,10,517670,396316
2025-02-21 16:05:02.658,153319,83058,52579,5,518707,397417
2025-02-21 16:05:02.683,154648,83396,52808,9,521247,399998
2025-02-21 16:05:02.783,155856,83236,52834,7,522807,402034
2025-02-21 16:05:02.902,156254,83286,52857,4,522450,402510
2025-02-21 16:05:03.022,156569,83555,52915,10,522824,403486
2025-02-21 16:05:03.168,156957,83772,52991,9,523445,404540
2025-02-21 16:05:03.178,153635,83357,52588,7,515712,397303
2025-02-21 16:05:03.281,153041,83204,52466,3,513709,395612
2025-02-21 16:05:03.412,154244,82988,52325,7,514816,397004
2025-02-21 16:05:03.522,155068,82355,52012,10,514480,397468
2025-02-21 16:05:03.654,155410,82059,51783,10,515248,399016
2025-02-21 16:05:03.679,155640,82199,51778,7,516071,400352
2025-02-21 16:05:03.782,155971,82605,51947,4,516885,401471
2025-02-21 16:05:03.890,156252,83008,52088,8,517758,402527
2025-02-21 16:05:03.998,156482,83102,52130,7,518011,403097
2025-02-21 16:05:04.125,155460,82912,51987,8,514446,399942
2025-02-21 16:05:04.174,152327,82236,51514,14,507008,392966
2025-02-21 16:05:04.274,153305,82156,51495,11,507187,393496
2025-02-21 16:05:04.374,154753,82340,51602,8,509475,395992
2025-02-21 16:05:04.482,155492,82516,51711,6,510720,397591
2025-02-21 16:05:04.613,156128,82800,51843,6,512495,399725
2025-02-21 16:05:04.725,156445,83007,51942,7,513131,400744
2025-02-21 16:05:04.766,156658,83192,51989,12,513498,401473
2025-02-21 16:05:04.866,156806,83259,52030,6,513537,401902
2025-02-21 16:05:04.970,156995,83364,52098,7,513485,402202
2025-02-21 16:05:05.089,155884,83328,52016,5,510409,399447
2025-02-21 16:05:05.199,152717,82757,51639,5,503543,392896
2025-02-21 16:05:05.330,153973,82739,51711,5,504335,393964
2025-02-21 16:05:05.370,155073,82830,51754,5,505700,395629
2025-02-21 16:05:05.617,155720,82947,51726,6,507042,397276
2025-02-21 16:05:05.619,156222,83124,51746,8,508835,399456
2025-02-21 16:05:05.767,156563,83508,51854,4,509981,400920
2025-02-21 16:05:05.769,156906,83830,51979,9,510951,402106
2025-02-21 16:05:05.889,157147,84077,52090,6,511664,403049
2025-02-21 16:05:06.042,157111,84377,52211,9,511556,403130
2025-02-21 16:05:06.066,152439,83754,51680,3,502641,394369
2025-02-21 16:05:06.228,152971,83727,51676,7,502375,394311
2025-02-21 16:05:06.266,154024,83695,51722,7,503586,395766
2025-02-21 16:05:06.408,154782,83858,51834,10,504535,397011
2025-02-21 16:05:06.527,156077,84346,52114,7,507604,400269
2025-02-21 16:05:06.569,156843,84810,52392,10,509407,402286
2025-02-21 16:05:06.667,157208,85126,52578,11,510100,403251
2025-02-21 16:05:06.786,157391,85201,52607,8,510414,403979
2025-02-21 16:05:06.931,157366,84954,52378,6,509953,403994
2025-02-21 16:05:06.961,156276,84076,51646,7,506439,401090
2025-02-21 16:05:07.061,152305,82925,50824,6,497367,392568
2025-02-21 16:05:07.231,153177,82971,50851,4,498281,393729
2025-02-21 16:05:07.265,154138,83486,51137,3,500949,396525
2025-02-21 16:05:07.365,154832,83969,51379,6,503024,398680
2025-02-21 16:05:07.486,155908,84314,51503,3,505675,401595
2025-02-21 16:05:07.605,156565,84438,51554,7,506907,403116
2025-02-21 16:05:07.744,157007,84357,51501,9,507183,403812
2025-02-21 16:05:07.757,157193,84086,51404,11,506417,403659
2025-02-21 16:05:07.863,157134,83715,51224,8,505160,403081
2025-02-21 16:05:08.000,155598,83287,50861,12,500322,398775
2025-02-21 16:05:08.168,153675,82751,50532,8,494809,393609
2025-02-21 16:05:08.170,155673,83255,50747,3,497912,396949
2025-02-21 16:05:08.306,156420,83701,50931,11,499211,398445
2025-02-21 16:05:08.423,156884,83911,51092,9,499918,399471
2025-02-21 16:05:08.452,157352,84279,51262,13,501314,401222
2025-02-21 16:05:08.563,157555,84381,51255,8,501601,401875
2025-02-21 16:05:08.678,157615,84294,51191,11,501248,401916
2025-02-21 16:05:08.822,157740,84451,51238,12,501140,402205
2025-02-21 16:05:08.854,154879,84231,50926,7,495165,396195
2025-02-21 16:05:08.994,153827,84057,50797,8,492464,393531
2025-02-21 16:05:09.129,154809,84089,50934,6,493615,394840
2025-02-21 16:05:09.158,156095,84131,51107,4,495105,396560
2025-02-21 16:05:09.247,156975,84213,51179,6,497020,398880
2025-02-21 16:05:09.386,157360,84491,51289,12,498508,400815
2025-02-21 16:05:09.501,157591,84936,51443,12,499573,402120
2025-02-21 16:05:09.548,157807,85245,51617,4,500223,402944
2025-02-21 16:05:09.679,158003,85355,51725,8,500422,403409
2025-02-21 16:05:09.846,155365,84803,51298,9,494437,397512
2025-02-21 16:05:09.853,153925,84004,50881,8,489831,393151
2025-02-21 16:05:09.981,155113,84025,50961,9,490758,394342
2025-02-21 16:05:10.145,156278,84192,51126,7,492259,396088
2025-02-21 16:05:10.152,157116,84548,51298,2,494258,398363
2025-02-21 16:05:10.287,157656,84864,51449,8,496193,400619
2025-02-21 16:05:10.405,157887,84982,51523,12,496786,401525
2025-02-21 16:05:10.444,158121,85183,51621,9,497287,402357
2025-02-21 16:05:10.545,158293,85261,51669,8,497654,403062
2025-02-21 16:05:10.721,155483,84747,51318,8,491745,397190
2025-02-21 16:05:10.748,154596,84551,51242,11,488856,394379
2025-02-21 16:05:10.862,155845,84927,51509,10,490395,396052
2025-02-21 16:05:10.993,156178,84903,51573,4,490390,396267
2025-02-21 16:05:11.040,157436,85202,51787,9,492896,399039
2025-02-21 16:05:11.187,158155,85562,51976,11,495159,401653
2025-02-21 16:05:11.320,158458,85872,52106,7,496044,402847
2025-02-21 16:05:11.339,158670,86145,52191,8,496686,403737
2025-02-21 16:05:11.474,158451,86306,52202,3,496342,403609
2025-02-21 16:05:11.599,153673,85425,51410,4,487661,394745
2025-02-21 16:05:11.644,154173,85248,51484,4,487087,394308
2025-02-21 16:05:11.748,154844,85339,51716,4,487782,395201
2025-02-21 16:05:11.927,155330,85345,51862,6,488125,395756
2025-02-21 16:05:11.943,156941,85653,52126,10,490639,398544
2025-02-21 16:05:12.096,157944,86007,52355,2,492823,401023
2025-02-21 16:05:12.135,158486,86403,52517,6,494094,402584
2025-02-21 16:05:12.235,158743,86349,52381,6,494832,403715
2025-02-21 16:05:12.438,158740,86118,52163,5,494778,404159
2025-02-21 16:05:12.440,154338,85344,51396,6,486360,395630
2025-02-21 16:05:12.622,154205,85303,51297,5,485125,394452
2025-02-21 16:05:12.640,154768,85547,51529,5,485923,395375
2025-02-21 16:05:12.828,155198,85956,51807,5,487032,396589
2025-02-21 16:05:12.832,156249,86433,52194,12,489112,398727
2025-02-21 16:05:12.981,157495,86534,52415,3,491195,401076
2025-02-21 16:05:13.139,158307,86672,52584,7,492131,402347
2025-02-21 16:05:13.141,158757,86799,52630,6,493141,403741
2025-02-21 16:05:13.272,158966,86777,52568,1,493719,404777
2025-02-21 16:05:13.417,156888,86071,52109,7,489197,400566
2025-02-21 16:05:13.434,154020,85515,51477,11,483281,394548
2025-02-21 16:05:13.582,154948,85879,51836,6,484163,395507
2025-02-21 16:05:13.731,155182,86325,52086,11,484483,395917
2025-02-21 16:05:13.734,155893,86053,52033,14,485033,396824
2025-02-21 16:05:13.860,157323,85830,52081,10,487070,399424
2025-02-21 16:05:14.031,158159,86417,52239,6,488844,401608
2025-02-21 16:05:14.034,158496,86576,52219,8,489647,402726
2025-02-21 16:05:14.164,158745,86729,52236,8,490107,403535
2025-02-21 16:05:14.314,155126,86791,51731,3,484278,397269
2025-02-21 16:05:14.319,154197,86068,51507,5,481163,394106
2025-02-21 16:05:14.438,154723,85806,51532,12,480946,394208
2025-02-21 16:05:14.586,155447,85586,51635,10,481173,394807
2025-02-21 16:05:14.622,156766,85902,51863,2,483064,396975
2025-02-21 16:05:14.712,158074,86383,52149,5,485790,400066
2025-02-21 16:05:14.872,158660,86722,52318,2,487388,401999
2025-02-21 16:05:14.914,158891,86698,52382,9,487886,402835
2025-02-21 16:05:15.014,159144,87096,52501,8,488573,403803
2025-02-21 16:05:15.146,154477,86354,51825,10,480489,395241
2025-02-21 16:05:15.316,154398,86504,51904,5,479494,394088
2025-02-21 16:05:15.317,154817,86607,52063,3,480031,394740
2025-02-21 16:05:15.466,155035,86346,52082,6,479901,394901
2025-02-21 16:05:15.592,156291,86376,52324,3,481473,396840
2025-02-21 16:05:15.618,157485,86598,52512,10,483860,399577
2025-02-21 16:05:15.740,158134,86785,52636,12,485192,401250
2025-02-21 16:05:15.916,158624,87072,52757,7,486238,402563
2025-02-21 16:05:15.918,157029,86768,52521,5,483415,399844
2025-02-21 16:05:16.061,153672,85867,51738,12,476991,393103
2025-02-21 16:05:16.109,154492,86018,51978,6,477610,393837
2025-02-21 16:05:16.210,154574,86110,52135,8,477762,394135
2025-02-21 16:05:16.335,155081,86134,52231,9,478299,394822
2025-02-21 16:05:16.458,156391,86462,52459,9,480677,397488
2025-02-21 16:05:16.502,157274,86537,52549,7,482260,399401
2025-02-21 16:05:16.610,157837,86524,52535,11,483083,400637
2025-02-21 16:05:16.740,157908,86562,52501,11,483375,401225
2025-02-21 16:05:16.892,153234,85513,51488,9,474748,392201
2025-02-21 16:05:16.905,153555,85439,51556,14,474270,391656
2025-02-21 16:05:17.062,154010,85481,51748,2,474683,392221
2025-02-21 16:05:17.107,154272,85414,51855,7,474712,392486
2025-02-21 16:05:17.210,155262,85663,52066,5,476359,394392
2025-02-21 16:05:17.336,156426,85634,52124,7,478372,396812
2025-02-21 16:05:17.488,157258,85568,52107,9,479678,398643
2025-02-21 16:05:17.498,157788,85708,52120,8,480827,400218
2025-02-21 16:05:17.669,156566,85637,51949,11,478676,398139
2025-02-21 16:05:17.704,153172,84706,51108,7,471611,390643
2025-02-21 16:05:17.815,153797,84689,51271,7,471572,390694
2025-02-21 16:05:17.943,154333,84539,51444,7,471645,391063
2025-02-21 16:05:18.098,154870,84420,51545,10,471672,391455
2025-02-21 16:05:18.101,156333,84792,51817,8,474164,394300
2025-02-21 16:05:18.232,157227,85162,52032,3,476247,396694
2025-02-21 16:05:18.387,157761,85460,52213,10,477474,398170
2025-02-21 16:05:18.397,158086,85962,52499,9,478625,399461
2025-02-21 16:05:18.516,153587,85233,51680,3,471125,391384
2025-02-21 16:05:18.670,153913,85070,51733,8,470576,390761
2025-02-21 16:05:18.697,154242,85027,51883,7,470768,391154
2025-02-21 16:05:18.848,154199,85042,51954,4,470655,391149
2025-02-21 16:05:18.889,154971,85197,52182,5,471849,392566
2025-02-21 16:05:19.003,155925,85418,52380,7,473539,394555
2025-02-21 16:05:19.134,156619,85498,52496,6,474431,395734
2025-02-21 16:05:19.340,156822,85672,52628,4,474964,396524
2025-02-21 16:05:19.342,153203,84786,51662,6,468902,389965
2025-02-21 16:05:19.382,153622,84260,51613,8,468125,389270
2025-02-21 16:05:19.481,153960,84083,51720,8,468045,389439
2025-02-21 16:05:19.612,154130,83976,51779,5,467869,389456
2025-02-21 16:05:19.739,155133,84266,52110,9,469509,391302
2025-02-21 16:05:19.785,156096,84409,52294,8,471019,393143
2025-02-21 16:05:19.898,156884,84366,52329,8,472090,394631
2025-02-21 16:05:20.025,157717,84633,52496,11,473661,396620
2025-02-21 16:05:20.181,157650,84873,52613,5,473909,397044
2025-02-21 16:05:20.183,153042,83741,51518,7,466112,388495
2025-02-21 16:05:20.307,153385,83350,51558,9,465453,387691
2025-02-21 16:05:20.457,153628,83135,51682,12,465339,387630
2025-02-21 16:05:20.480,153792,82921,51744,10,465065,387521
2025-02-21 16:05:20.638,154668,82974,51987,6,466081,388795
2025-02-21 16:05:20.681,155615,83167,52228,8,467630,390616
2025-02-21 16:05:20.787,156413,83357,52463,12,468834,392109
2025-02-21 16:05:20.916,157277,83795,52817,7,470492,393960
2025-02-21 16:05:21.134,158056,84182,53149,7,472044,395815
2025-02-21 16:05:21.136,158244,84582,53411,10,472827,396714
2025-02-21 16:05:21.172,153675,84060,52744,9,466484,389256
2025-02-21 16:05:21.283,155220,85496,54373,5,470215,391414
2025-02-21 16:05:21.442,156193,86271,55519,5,473782,393436
2025-02-21 16:05:21.476,156612,86652,56347,5,476236,394452
2025-02-21 16:05:21.576,157905,87616,57566,5,481049,397248
2025-02-21 16:05:21.735,159085,88624,58616,12,486260,399913
2025-02-21 16:05:21.776,159694,88850,58990,6,489192,400980
2025-02-21 16:05:21.868,159565,88282,58797,4,488978,400021
2025-02-21 16:05:22.034,159276,87639,58573,7,487776,398666
2025-02-21 16:05:22.072,157511,86527,57777,4,485914,396200
2025-02-21 16:05:22.222,153671,83004,55072,11,481145,389284
2025-02-21 16:05:22.260,152291,81272,54071,5,478705,385652
2025-02-21 16:05:22.376,150952,80060,53460,2,476563,382533
2025-02-21 16:05:22.505,150105,79236,53133,11,474983,380103
2025-02-21 16:05:22.692,149955,78996,53171,8,474115,379002
2025-02-21 16:05:22.695,149968,78796,53236,10,473038,378005
2025-02-21 16:05:22.825,150104,78832,53418,13,472370,377377
2025-02-21 16:05:22.864,150299,78910,53603,10,471921,377162
2025-02-21 16:05:22.980,150534,79138,53875,11,471771,377314
2025-02-21 16:05:23.124,147487,77548,52404,8,468965,373241
2025-02-21 16:05:23.156,146021,76071,51308,6,467158,369775
2025-02-21 16:05:23.289,145915,75900,51238,14,467503,369293
2025-02-21 16:05:23.424,145583,75759,51102,9,467386,368898
2025-02-21 16:05:23.461,145236,75759,51064,8,466987,368567
2025-02-21 16:05:23.589,146083,76292,51463,7,468092,369500
2025-02-21 16:05:23.718,146962,76897,51901,1,469280,370841
2025-02-21 16:05:23.753,147670,77478,52350,5,470579,372215
2025-02-21 16:05:23.913,148360,78002,52735,5,471445,373228
2025-02-21 16:05:23.951,146719,77374,52103,3,469423,371110
2025-02-21 16:05:24.051,143716,75199,50303,5,465405,365471
2025-02-21 16:05:24.199,143693,74873,50115,9,464883,364191
2025-02-21 16:05:24.331,143648,74799,50070,8,464513,363660
2025-02-21 16:05:24.355,144184,75154,50344,8,465649,364509
2025-02-21 16:05:24.552,145124,75669,50789,7,467083,366016
2025-02-21 16:05:24.555,145477,75569,50811,6,466352,365902
2025-02-21 16:05:24.682,145969,75749,51022,8,465784,365975
2025-02-21 16:05:24.842,146686,76278,51467,10,466536,367035
2025-02-21 16:05:24.846,145027,75739,50882,7,465304,365228
2025-02-21 16:05:24.975,143897,74635,50053,13,463715,362380
2025-02-21 16:05:25.135,144371,74494,50057,9,463360,362183
2025-02-21 16:05:25.147,144462,74456,50100,11,463217,362013
2025-02-21 16:05:25.267,145193,74811,50487,12,464206,362936
2025-02-21 16:05:25.434,146137,75454,51036,5,465741,364625
2025-02-21 16:05:25.450,146953,76109,51560,3,467670,366605
2025-02-21 16:05:25.564,147602,76681,52078,3,469355,368146
2025-02-21 16:05:25.786,146484,76494,51748,5,468758,366839
2025-02-21 16:05:25.789,144010,74804,50184,15,466384,362279
2025-02-21 16:05:25.917,143716,74468,49906,4,467258,361886
2025-02-21 16:05:25.943,143667,74583,49992,5,468254,362027
2025-02-21 16:05:26.078,143729,74708,50052,5,468554,361754
2025-02-21 16:05:26.278,144397,75393,50523,10,470024,362977
2025-02-21 16:05:26.280,144918,75996,50952,8,471309,364111
2025-02-21 16:05:26.432,145370,76517,51319,11,472379,365096
2025-02-21 16:05:26.446,145938,76979,51679,3,473470,366144
2025-02-21 16:05:26.560,145600,76983,51607,4,473227,365889
2025-02-21 16:05:26.728,142193,74789,49621,8,469418,360211
2025-02-21 16:05:26.738,141645,74220,49115,4,469347,358860
2025-02-21 16:05:26.867,141664,74255,49141,4,470198,358947
2025-02-21 16:05:27.037,141785,74482,49307,4,471132,359262
2025-02-21 16:05:27.042,142413,75117,49795,4,472710,360566
2025-02-21 16:05:27.172,143104,75747,50274,7,473969,361828
2025-02-21 16:05:27.347,143819,76245,50645,14,474771,362835
2025-02-21 16:05:27.349,144678,76772,51057,5,475554,363953
2025-02-21 16:05:27.528,145501,77367,51530,6,476548,365311
2025-02-21 16:05:27.546,145106,77354,51434,7,476378,365243
2025-02-21 16:05:27.690,142032,75311,49704,7,473141,360194
2025-02-21 16:05:27.734,141956,74916,49435,5,472907,359316
2025-02-21 16:05:27.838,142061,74978,49516,2,473127,359327
2025-02-21 16:05:28.039,142264,75181,49708,5,473774,359680
2025-02-21 16:05:28.041,142984,75745,50161,4,474850,360808
2025-02-21 16:05:28.167,143715,76243,50569,12,475583,361842
2025-02-21 16:05:28.335,144413,76730,50972,12,476499,362973
2025-02-21 16:05:28.337,145092,77244,51416,9,477322,364057
2025-02-21 16:05:28.471,145381,77738,51814,6,477843,364903
2025-02-21 16:05:28.631,143031,76626,50746,11,475742,362020
2025-02-21 16:05:28.642,141511,75351,49757,8,474171,358666
2025-02-21 16:05:28.766,141649,75379,49839,10,474753,358751
2025-02-21 16:05:28.927,141635,75321,49862,8,475051,358730
2025-02-21 16:05:28.934,142292,75646,50191,10,476020,359660
2025-02-21 16:05:29.111,143236,76209,50706,5,477373,361224
2025-02-21 16:05:29.134,143974,76707,51134,10,478173,362356
2025-02-21 16:05:29.267,144657,77249,51584,12,479128,363497
2025-02-21 16:05:29.410,145427,77728,51994,10,480036,364663
2025-02-21 16:05:29.438,145819,78136,52290,6,480722,365616
2025-02-21 16:05:29.580,142429,76172,50542,2,477095,360764
2025-02-21 16:05:29.774,141400,75094,49745,4,475849,358205
2025-02-21 16:05:29.776,141369,74850,49656,15,475699,357710
2025-02-21 16:05:29.933,141594,74921,49783,10,476037,357953
2025-02-21 16:05:29.935,142265,75398,50204,6,477133,359116
2025-02-21 16:05:30.077,143003,75953,50670,9,478087,360366
2025-02-21 16:05:30.240,143732,76414,51044,15,478711,361374
2025-02-21 16:05:30.243,144469,76922,51483,3,479687,362705
2025-02-21 16:05:30.376,145220,77274,51814,4,480336,363732
2025-02-21 16:05:30.541,145517,77571,52026,5,480487,364277
2025-02-21 16:05:30.543,142327,75721,50436,2,477095,359708
2025-02-21 16:05:30.689,141859,74978,49955,10,476117,357890
2025-02-21 16:05:30.725,142081,75024,50074,17,476388,358049
2025-02-21 16:05:30.897,142274,75169,50261,13,476957,358521
2025-02-21 16:05:30.925,143076,75668,50701,7,478024,359752
2025-02-21 16:05:31.030,143884,76202,51134,9,478911,361022
2025-02-21 16:05:31.191,144497,76664,51529,6,479714,362135
2025-02-21 16:05:31.229,145156,77115,51905,4,480484,363207
2025-02-21 16:05:31.365,145266,77377,52075,3,480669,363664
2025-02-21 16:05:31.527,142216,75650,50612,6,477659,359386
2025-02-21 16:05:31.529,141875,75179,50348,3,477244,358151
2025-02-21 16:05:31.661,141893,75222,50479,10,477405,358171
2025-02-21 16:05:31.831,141818,75215,50556,3,477396,357975
2025-02-21 16:05:31.834,142483,75686,51000,6,478432,359067
2025-02-21 16:05:31.969,143167,76239,51472,6,479465,360317
2025-02-21 16:05:32.145,143660,76752,51892,6,480418,361356
2025-02-21 16:05:32.148,144217,77160,52241,5,481262,362404
2025-02-21 16:05:32.284,143129,76671,51757,7,480287,361310
2025-02-21 16:05:32.324,140009,74371,49873,16,476421,355803
2025-02-21 16:05:32.457,139603,73734,49513,12,475506,354365
2025-02-21 16:05:32.646,139736,73740,49641,12,475746,354462
2025-02-21 16:05:32.648,140035,73956,49894,6,476538,355044
2025-02-21 16:05:32.815,140818,74465,50351,6,477662,356315
2025-02-21 16:05:32.820,141509,74952,50747,8,478516,357461
2025-02-21 16:05:32.954,142149,75411,51105,6,479230,358495
2025-02-21 16:05:33.190,142864,75921,51513,12,480094,359713
2025-02-21 16:05:33.193,142742,76130,51598,9,480384,360184
2025-02-21 16:05:33.211,139260,73912,49647,20,476669,355111
2025-02-21 16:05:33.334,138617,73103,49075,5,475705,353370
2025-02-21 16:05:33.502,138777,73005,49097,6,475863,353431
2025-02-21 16:05:33.505,139041,73115,49225,8,476258,353869
2025-02-21 16:05:33.638,139913,73646,49678,7,477449,355287
2025-02-21 16:05:33.809,140851,74207,50141,10,478483,356776
2025-02-21 16:05:33.812,141695,74625,50483,8,479028,357901
2025-02-21 16:05:33.958,142554,75139,50899,2,479708,359117
2025-02-21 16:05:34.124,143375,75699,51367,5,480561,360472
2025-02-21 16:05:34.126,142872,75423,51093,6,479898,360073
2025-02-21 16:05:34.318,140308,73412,49424,15,476254,355541
2025-02-21 16:05:34.320,140554,73245,49358,6,475966,355150
2025-02-21 16:05:34.473,140688,73277,49432,6,475865,355166
2025-02-21 16:05:34.500,140980,73460,49612,6,476105,355508
2025-02-21 16:05:34.609,141756,74003,50095,6,477131,356777
2025-02-21 16:05:34.779,142352,74464,50515,7,477821,357733
2025-02-21 16:05:34.800,142827,74834,50848,14,478155,358346
2025-02-21 16:05:34.970,143424,75297,51235,8,478695,359196
2025-02-21 16:05:34.991,142039,74788,50723,6,477564,357856
2025-02-21 16:05:35.135,139472,73027,49225,5,474603,353520
2025-02-21 16:05:35.277,139495,73005,49272,10,474801,353286
2025-02-21 16:05:35.295,139429,73139,49424,5,475504,353633
2025-02-21 16:05:35.441,139768,73422,49694,7,476266,354218
2025-02-21 16:05:35.585,140536,73972,50170,7,477348,355432
2025-02-21 16:05:35.595,141183,74503,50614,10,478323,356611
2025-02-21 16:05:35.763,141831,74955,50984,14,479167,357640
2025-02-21 16:05:35.799,142575,75414,51371,7,479880,358666
2025-02-21 16:05:35.900,142144,75389,51282,5,479631,358579
2025-02-21 16:05:36.118,138392,72918,49103,7,475626,353004
2025-02-21 16:05:36.120,137667,72095,48522,3,474761,351234
2025-02-21 16:05:36.258,137809,72050,48530,12,474884,351078
2025-02-21 16:05:36.291,138124,72225,48693,7,475230,351459
2025-02-21 16:05:36.430,138984,72772,49154,8,476249,352711
2025-02-21 16:05:36.637,139804,73410,49688,5,477484,354245
2025-02-21 16:05:36.639,140452,74026,50187,12,478711,355650
2025-02-21 16:05:36.798,141153,74603,50651,8,479697,356871
2025-02-21 16:05:36.801,141872,75157,51092,6,480408,357962
2025-02-21 16:05:36.948,141101,74819,50744,9,479434,357234
2025-02-21 16:05:36.986,137624,72467,48710,9,475189,351663
2025-02-21 16:05:37.113,137361,72086,48436,8,475318,350991
2025-02-21 16:05:37.256,137603,72180,48523,6,475747,351354
2025-02-21 16:05:37.287,137950,72421,48692,6,476031,351780
2025-02-21 16:05:37.434,138821,73041,49204,4,477045,353127
2025-02-21 16:05:37.570,139625,73592,49634,7,477828,354320
2025-02-21 16:05:37.590,140384,74110,50075,5,478619,355512
2025-02-21 16:05:37.749,141138,74659,50542,7,479469,356744
2025-02-21 16:05:37.779,141791,75214,50982,7,480098,357775
2025-02-21 16:05:37.947,140399,74608,50386,10,478600,356257
2025-02-21 16:05:37.982,137861,72876,48899,3,475738,352071
2025-02-21 16:05:38.113,138166,72955,49017,8,476030,352134
2025-02-21 16:05:38.320,138160,72988,49070,17,476052,352203
2025-02-21 16:05:38.322,138605,73353,49403,4,476811,352978
2025-02-21 16:05:38.473,139477,73947,49907,10,477730,354254
2025-02-21 16:05:38.486,140242,74493,50371,9,478449,355325
2025-02-21 16:05:38.609,140968,75018,50797,5,479191,356376
2025-02-21 16:05:38.781,141742,75603,51275,9,479989,357507
2025-02-21 16:05:38.784,142465,76199,51754,10,480924,358752
2025-02-21 16:05:38.919,139679,74904,50514,3,478680,355856
2025-02-21 16:05:39.101,137296,73011,48953,8,475834,351368
2025-02-21 16:05:39.104,137206,72617,48722,7,475502,350488
2025-02-21 16:05:39.247,137441,72863,48928,7,476177,350964
2025-02-21 16:05:39.277,137993,73358,49330,1,477313,352075
2025-02-21 16:05:39.413,138879,74068,49896,2,478552,353595
2025-02-21 16:05:39.601,139622,74718,50417,5,479603,354940
2025-02-21 16:05:39.604,140321,75328,50872,7,480455,356125
2025-02-21 16:05:39.773,141134,75967,51357,5,481289,357348
2025-02-21 16:05:39.776,141917,76622,51864,14,482230,358677
2025-02-21 16:05:39.917,141840,76883,51990,13,482427,359142
2025-02-21 16:05:40.094,137779,74280,49673,6,477614,352997
2025-02-21 16:05:40.096,137369,73612,49174,7,476336,350970
2025-02-21 16:05:40.237,137566,73689,49258,11,476433,351026
2025-02-21 16:05:40.278,137769,73906,49443,8,476903,351497
2025-02-21 16:05:40.408,138702,74514,49936,5,478059,352871
2025-02-21 16:05:40.549,139659,75153,50476,8,479093,354340
2025-02-21 16:05:40.577,140407,75739,50966,5,479959,355529
2025-02-21 16:05:40.730,141153,76325,51438,22,480849,356744
2025-02-21 16:05:40.770,141933,76963,51943,6,481915,358112
2025-02-21 16:05:40.872,142604,77487,52347,7,482555,359086
2025-02-21 16:05:41.046,140158,76293,51199,5,479891,356165
2025-02-21 16:05:41.061,138140,74640,49840,4,476866,351985
2025-02-21 16:05:41.248,138647,74884,50069,6,476914,352124
2025-02-21 16:05:41.260,138298,75140,50209,9,477306,352380
2025-02-21 16:05:41.439,138674,75582,50498,8,478305,353392
2025-02-21 16:05:41.453,139583,76213,50997,8,479473,354934
2025-02-21 16:05:41.592,140253,76814,51479,8,480721,356461
2025-02-21 16:05:41.837,140889,77224,51819,6,481464,357531
2025-02-21 16:05:41.839,141663,77641,52171,4,482121,358528
2025-02-21 16:05:41.841,142392,78183,52628,8,483052,359836
2025-02-21 16:05:41.980,139024,76350,50954,4,479726,355721
2025-02-21 16:05:42.151,137111,74603,49621,5,476916,351419
2025-02-21 16:05:42.154,137206,74412,49573,8,476663,350913
2025-02-21 16:05:42.294,137231,74419,49606,15,476752,350959
2025-02-21 16:05:42.341,137866,74812,49949,6,477471,351876
2025-02-21 16:05:42.469,138854,75486,50498,10,478654,353472
2025-02-21 16:05:42.624,139606,76049,50955,5,479600,354797
2025-02-21 16:05:42.632,140351,76531,51352,7,480357,355937
2025-02-21 16:05:42.798,141269,77048,51794,2,481246,357214
2025-02-21 16:05:42.833,141803,77479,52133,6,481862,358220
2025-02-21 16:05:42.994,137901,75124,50062,7,477253,352591
2025-02-21 16:05:43.032,136969,74042,49247,10,475407,349613
2025-02-21 16:05:43.167,137216,74084,49353,27,475673,349732
2025-02-21 16:05:43.311,137324,74148,49421,9,475837,349878
2025-02-21 16:05:43.324,138150,74692,49858,3,476900,351117
2025-02-21 16:05:43.547,139132,75342,50405,4,478288,352854
2025-02-21 16:05:43.549,139752,75762,50800,2,479478,354234
2025-02-21 16:05:43.693,140532,76142,51136,5,479874,354993
2025-02-21 16:05:43.720,141464,76684,51555,6,480477,355993
2025-02-21 16:05:43.864,140986,76695,51475,6,480171,355884
2025-02-21 16:05:44.039,137246,74444,49497,3,475796,350004
2025-02-21 16:05:44.042,137470,74433,49542,5,476188,349916
2025-02-21 16:05:44.223,137457,74547,49694,7,477276,350745
2025-02-21 16:05:44.226,137559,74481,49711,6,477500,350854
2025-02-21 16:05:44.363,138600,75036,50187,5,478538,352279
2025-02-21 16:05:44.548,139391,75547,50600,7,479303,353472
2025-02-21 16:05:44.550,139974,75920,50922,6,479893,354389
2025-02-21 16:05:44.739,140636,76302,51246,7,480386,355307
2025-02-21 16:05:44.741,140866,76575,51412,4,480687,355961
2025-02-21 16:05:44.921,136708,74174,49308,6,476362,349989
2025-02-21 16:05:44.923,136101,73401,48774,14,475566,348161
2025-02-21 16:05:45.065,136310,73370,48827,13,475756,348277
2025-02-21 16:05:45.088,136479,73427,48884,10,475822,348464
2025-02-21 16:05:45.302,137286,73900,49309,8,476795,349697
2025-02-21 16:05:45.304,138165,74444,49759,9,477563,350934
2025-02-21 16:05:45.438,138765,74959,50184,10,478370,352212
2025-02-21 16:05:45.468,139409,75494,50608,13,479234,353483
2025-02-21 16:05:45.618,140243,76089,51058,7,480054,354797
2025-02-21 16:05:45.769,139658,76006,50884,5,479550,354483
2025-02-21 16:05:45.772,135307,73370,48618,4,474241,347460
2025-02-21 16:05:45.950,134710,72783,48203,7,473061,345763
2025-02-21 16:05:45.971,134777,72878,48268,8,473153,346011
2025-02-21 16:05:46.091,135218,73112,48463,8,473618,346588
2025-02-21 16:05:46.278,136462,73768,49038,6,474928,348162
2025-02-21 16:05:46.281,137559,74421,49589,12,476037,349719
2025-02-21 16:05:46.466,138447,75024,50084,11,477121,351136
2025-02-21 16:05:46.468,139368,75585,50532,10,477953,352410
2025-02-21 16:05:46.642,140372,76184,50977,6,478654,353596
2025-02-21 16:05:46.667,140678,76566,51226,11,478984,354282
2025-02-21 16:05:46.786,136448,74239,49196,12,474286,348068
2025-02-21 16:05:47.021,135849,73584,48678,4,473037,346099
2025-02-21 16:05:47.024,136012,73604,48737,12,472951,346127
2025-02-21 16:05:47.059,136069,73707,48832,8,473169,346307
2025-02-21 16:05:47.175,136777,74267,49272,11,474326,347711
2025-02-21 16:05:47.357,137681,74894,49736,16,475551,349164
2025-02-21 16:05:47.359,138444,75384,50123,9,476240,350175
2025-02-21 16:05:47.512,139149,75868,50531,9,477215,351420
2025-02-21 16:05:47.554,140049,76474,51036,6,478457,352958
2025-02-21 16:05:47.693,137625,75333,49983,8,476362,350131
2025-02-21 16:05:47.836,135651,73882,48767,9,473698,346043
2025-02-21 16:05:47.855,136328,74075,48960,8,474312,346781
2025-02-21 16:05:48.070,136261,74068,49000,17,474538,346947
2025-02-21 16:05:48.072,136923,74549,49425,8,475756,348179
2025-02-21 16:05:48.211,137713,75291,50011,7,477200,349940
2025-02-21 16:05:48.247,138269,75908,50458,10,478436,351430
2025-02-21 16:05:48.393,138945,76402,50836,6,479345,352544
2025-02-21 16:05:48.536,139668,76969,51293,11,480417,353966
2025-02-21 16:05:48.550,138552,76662,50929,9,479873,353374
2025-02-21 16:05:48.717,134119,73881,48579,9,474425,345863
2025-02-21 16:05:48.750,133715,73263,48139,11,473577,344401
2025-02-21 16:05:48.862,133989,73247,48203,7,473894,344780
2025-02-21 16:05:49.042,134375,73409,48363,10,474382,345481
2025-02-21 16:05:49.045,135458,74004,48854,9,475605,347196
2025-02-21 16:05:49.190,136486,74608,49358,8,476477,348726
2025-02-21 16:05:49.374,137218,75126,49815,4,477120,349979
2025-02-21 16:05:49.377,138057,75789,50338,9,478055,351566
2025-02-21 16:05:49.520,138952,76449,50845,8,479177,353235
2025-02-21 16:05:49.546,139020,76486,50847,8,478822,353378
2025-02-21 16:05:49.699,134487,73620,48530,7,473251,346190
2025-02-21 16:05:49.739,133883,72665,47916,11,471555,343724
2025-02-21 16:05:49.900,134145,72437,47854,3,470681,343300
2025-02-21 16:05:49.938,134531,72572,48053,3,471008,343982
2025-02-21 16:05:50.076,135531,73179,48627,8,472235,345694
2025-02-21 16:05:50.227,136575,73907,49229,9,473698,347694
2025-02-21 16:05:50.242,137321,74515,49732,8,474896,349377
2025-02-21 16:05:50.458,138349,75179,50261,20,476200,351028
2025-02-21 16:05:50.460,139265,75829,50775,6,477327,352522
2025-02-21 16:05:50.603,139934,76388,51158,2,477872,353826
2025-02-21 16:05:50.642,136889,74976,49808,7,474587,350478
2025-02-21 16:05:50.793,134639,73194,48488,6,471445,346228
2025-02-21 16:05:50.834,134986,73021,48511,10,470910,345803
2025-02-21 16:05:50.938,135236,73025,48651,8,471240,345927
2025-02-21 16:05:51.124,135880,73299,49000,10,472073,346441
2025-02-21 16:05:51.127,136783,74008,49576,9,473595,348287
2025-02-21 16:05:51.277,137454,74620,50074,8,474975,350041
2025-02-21 16:05:51.318,138105,75062,50445,5,475684,351122
2025-02-21 16:05:51.518,138926,75596,50865,4,476409,352345
2025-02-21 16:05:51.520,139126,76012,51154,9,477141,353475
2025-02-21 16:05:51.693,134503,73461,48876,6,472410,347514
2025-02-21 16:05:51.701,133609,72330,48113,11,471409,345346
2025-02-21 16:05:51.881,133831,72051,48084,8,470810,344438
2025-02-21 16:05:51.890,133874,72059,48167,6,470333,344130
2025-02-21 16:05:52.045,134627,72633,48665,5,471555,345560
2025-02-21 16:05:52.093,135726,73354,49266,7,473035,347373
2025-02-21 16:05:52.328,136604,73926,49736,12,473952,348638
2025-02-21 16:05:52.330,137483,74446,50180,6,474919,349955
2025-02-21 16:05:52.474,138549,74962,50620,7,475554,351073
2025-02-21 16:05:52.486,139557,75425,51005,10,475846,351951
2025-02-21 16:05:52.654,136894,74236,49856,3,472805,348657
2025-02-21 16:05:52.677,133820,72008,48032,5,468267,342608
2025-02-21 16:05:52.803,134080,71737,47889,17,467273,341731
2025-02-21 16:05:52.981,134655,72022,48148,6,467714,342381
2025-02-21 16:05:52.984,135422,72460,48544,6,468998,343844
2025-02-21 16:05:53.206,136467,72963,49010,7,470081,345445
2025-02-21 16:05:53.208,137668,73584,49514,6,470888,346933
2025-02-21 16:05:53.382,138638,74385,50099,7,472376,348732
2025-02-21 16:05:53.385,139189,75238,50734,5,474201,350679
2025-02-21 16:05:53.523,139617,75834,51209,6,475566,352008
2025-02-21 16:05:53.561,137981,75194,50599,10,473969,350165
2025-02-21 16:05:53.710,134296,72756,48535,4,469066,343601
2025-02-21 16:05:53.921,134812,72759,48695,3,470365,344501
2025-02-21 16:05:53.924,134699,72588,48766,9,471138,345001
2025-02-21 16:05:53.965,134932,72531,48839,13,471091,344915
2025-02-21 16:05:54.096,135948,73082,49330,5,472059,346260
2025-02-21 16:05:54.246,136611,73624,49767,13,472801,347473
2025-02-21 16:05:54.265,137191,74038,50109,16,473317,348368
2025-02-21 16:05:54.432,137965,74515,50480,4,473849,349303
2025-02-21 16:05:54.456,136869,74228,50147,12,472841,348452
2025-02-21 16:05:54.578,132548,71458,47854,7,467504,341360
2025-02-21 16:05:54.757,132496,71050,47594,9,466749,340153
2025-02-21 16:05:54.760,132814,71101,47686,5,466912,340367
2025-02-21 16:05:54.962,133131,71269,47853,8,467123,340729
2025-02-21 16:05:54.965,134100,71958,48434,8,468530,342472
2025-02-21 16:05:55.138,134968,72585,48964,2,469919,344246
2025-02-21 16:05:55.140,135699,73058,49350,8,470607,345331
2025-02-21 16:05:55.284,136535,73531,49764,21,471333,346488
2025-02-21 16:05:55.332,137322,74058,50204,7,472283,347893
2025-02-21 16:05:55.467,137797,74431,50487,4,472811,348880
2025-02-21 16:05:55.679,133139,71780,48231,6,467190,342100
2025-02-21 16:05:55.681,131732,70421,47217,8,464633,338231
2025-02-21 16:05:55.724,131879,70252,47155,6,464545,337937
2025-02-21 16:05:55.857,132192,70417,47312,6,465141,338523
2025-02-21 16:05:56.001,133062,70932,47733,7,466273,339857
2025-02-21 16:05:56.028,134119,71616,48284,4,467481,341552
2025-02-21 16:05:56.180,134908,72196,48749,5,468474,342923
2025-02-21 16:05:56.220,135731,72658,49135,5,469121,343995
2025-02-21 16:05:56.328,136719,73260,49626,5,469971,345347
2025-02-21 16:05:56.505,137631,73878,50113,6,470938,346822
2025-02-21 16:05:56.512,138458,74453,50571,6,471803,348149
2025-02-21 16:05:56.712,135996,73374,49573,11,469407,345469
2025-02-21 16:05:56.715,132637,71082,47738,5,464882,338998
2025-02-21 16:05:56.890,132983,70969,47745,10,464841,338682
2025-02-21 16:05:56.903,132990,70934,47784,6,464905,338653
2025-02-21 16:05:57.030,133538,71227,48053,11,465583,339355
2025-02-21 16:05:57.242,134614,71893,48628,3,466977,341096
2025-02-21 16:05:57.245,135375,72505,49138,2,468284,342696
2025-02-21 16:05:57.390,136037,72913,49489,13,469056,343894
2025-02-21 16:05:57.408,136889,73374,49872,9,469915,345121
2025-02-21 16:05:57.577,137795,73955,50333,7,470990,346570
2025-02-21 16:05:57.600,137794,74159,50456,11,471231,347146
2025-02-21 16:05:57.730,132867,71392,48121,24,465336,339550
2025-02-21 16:05:57.913,132436,70768,47678,9,464106,337450
2025-02-21 16:05:57.916,132717,70855,47810,8,464321,337659
2025-02-21 16:05:58.062,132761,70958,47915,15,464471,337802
2025-02-21 16:05:58.091,133661,71535,48413,8,465760,339328
2025-02-21 16:05:58.247,134576,72213,48970,7,467202,341154
2025-02-21 16:05:58.283,135283,72720,49413,9,468263,342532
2025-02-21 16:05:58.458,136081,73223,49854,7,469298,343888
2025-02-21 16:05:58.475,137054,73767,50321,8,470300,345284
2025-02-21 16:05:58.635,137958,74339,50801,12,471331,346775
2025-02-21 16:05:58.675,136934,74055,50491,9,470542,346117
2025-02-21 16:05:58.775,132170,71143,48050,4,464306,337965
2025-02-21 16:05:58.954,132108,70768,47771,8,463475,336589
2025-02-21 16:05:58.957,132421,70836,47855,5,463507,336739
2025-02-21 16:05:59.188,132619,70980,47992,8,463793,337066
2025-02-21 16:05:59.190,133576,71591,48498,8,465158,338703
2025-02-21 16:05:59.360,134608,72201,48995,7,466401,340398
2025-02-21 16:05:59.363,135378,72644,49381,5,467182,341591
2025-02-21 16:05:59.500,136254,73136,49803,11,468043,342863
2025-02-21 16:05:59.689,137159,73759,50297,9,469269,344453
2025-02-21 16:05:59.692,137899,74345,50768,9,470464,345991
2025-02-21 16:05:59.837,134750,72879,49443,10,467061,342101
2025-02-21 16:05:59.842,132268,71177,47996,15,463361,336894
2025-02-21 16:06:00.101,132959,71401,48195,18,463947,337477
2025-02-21 16:06:00.103,132777,71369,48183,4,463963,337500
2025-02-21 16:06:00.134,133158,71598,48401,21,464573,338116
2025-02-21 16:06:00.252,134182,72257,48945,12,466087,339943
2025-02-21 16:06:00.431,134870,72796,49406,8,467342,341506
2025-02-21 16:06:00.435,135426,73263,49790,5,468372,342780
2025-02-21 16:06:00.583,136175,73738,50168,4,469331,344001
2025-02-21 16:06:00.618,136167,73968,50313,6,469753,344713
2025-02-21 16:06:00.830,131617,71239,47982,8,464517,337646
2025-02-21 16:06:00.833,131478,70676,47536,11,463675,336183
2025-02-21 16:06:00.975,131915,70794,47673,13,464331,336956
2025-02-21 16:06:01.010,131979,70835,47720,3,464565,337212
2025-02-21 16:06:01.157,132982,71398,48185,6,465935,338872
2025-02-21 16:06:01.201,134058,72033,48704,5,467288,340653
2025-02-21 16:06:01.308,134828,72536,49115,10,468055,341840
2025-02-21 16:06:01.500,135684,73029,49532,6,468806,342996
2025-02-21 16:06:01.503,136583,73611,50015,12,469835,344473
2025-02-21 16:06:01.659,136435,73727,50064,15,469896,344847
2025-02-21 16:06:01.694,131132,70776,47561,6,463502,336663
2025-02-21 16:06:01.933,130486,70073,46976,10,462214,334529
2025-02-21 16:06:01.935,130610,69963,46926,8,462124,334447
2025-02-21 16:06:01.973,130957,70074,47054,9,462479,334909
2025-02-21 16:06:02.096,131941,70557,47472,12,463493,336305
2025-02-21 16:06:02.277,133128,71177,47994,6,464711,338047
2025-02-21 16:06:02.280,134005,71695,48429,5,465555,339363
2025-02-21 16:06:02.435,134932,72239,48879,6,466409,340630
2025-02-21 16:06:02.478,135941,72816,49337,7,467452,342104
2025-02-21 16:06:02.664,136848,73353,49788,24,468387,343498
2025-02-21 16:06:02.669,136324,73271,49663,13,468009,343364
2025-02-21 16:06:02.818,131634,70525,47402,11,461916,335578
2025-02-21 16:06:02.862,131513,70087,47047,11,461179,334265
2025-02-21 16:06:02.995,131841,70122,47135,9,461113,334365
2025-02-21 16:06:03.153,131964,70212,47241,7,461027,334373
2025-02-21 16:06:03.155,132950,70825,47742,5,462375,335996
2025-02-21 16:06:03.336,133826,71444,48250,7,463797,337760
2025-02-21 16:06:03.345,134483,71902,48639,7,464821,338977
2025-02-21 16:06:03.556,135218,72332,49002,8,465693,340198
2025-02-21 16:06:03.558,136096,72745,49371,3,466485,341405
2025-02-21 16:06:03.743,136294,73049,49597,10,467045,342307
2025-02-21 16:06:03.745,131523,70499,47507,4,461413,335169
2025-02-21 16:06:03.885,131261,70016,47108,6,460635,333638
2025-02-21 16:06:03.930,131782,70178,47314,5,461277,334365
2025-02-21 16:06:04.068,131975,70260,47448,14,461504,334604
2025-02-21 16:06:04.292,133076,70892,47984,14,462954,336370
2025-02-21 16:06:04.294,134112,71538,48513,6,464391,338209
2025-02-21 16:06:04.329,134870,72033,48927,9,465347,339493
2025-02-21 16:06:04.477,135697,72569,49381,7,466408,340862
2025-02-21 16:06:04.522,136539,73128,49841,7,467612,342378
2025-02-21 16:06:04.626,137300,73609,50236,6,468572,343693
2025-02-21 16:06:04.809,134776,72582,49301,13,465843,340801
2025-02-21 16:06:04.812,130567,70054,47185,13,460271,333193
2025-02-21 16:06:04.968,130473,69753,46933,3,459855,332397
2025-02-21 16:06:05.005,130689,69848,47061,22,460458,332967
2025-02-21 16:06:05.152,131154,70108,47306,10,461223,333827
2025-02-21 16:06:05.197,132229,70785,47855,7,462653,335652
2025-02-21 16:06:05.370,133046,71385,48345,4,463776,337242
2025-02-21 16:06:05.408,133752,71888,48747,5,464639,338493
2025-02-21 16:06:05.541,134670,72451,49187,9,465576,339819
2025-02-21 16:06:05.692,135583,72975,49603,8,466411,341120
2025-02-21 16:06:05.701,136328,73425,49929,5,467080,342278
2025-02-21 16:06:05.935,132355,71486,48283,7,462388,336819
2025-02-21 16:06:05.939,130441,70186,47170,9,459416,332482
2025-02-21 16:06:06.095,130826,70250,47228,7,459680,332775
2025-02-21 16:06:06.097,130882,70254,47273,10,459782,332925
2025-02-21 16:06:06.288,131682,70709,47636,8,460831,334205
2025-02-21 16:06:06.291,132672,71333,48162,9,462150,335960
2025-02-21 16:06:06.433,133332,71792,48548,11,463003,337160
2025-02-21 16:06:06.477,133964,72210,48898,14,463706,338207
2025-02-21 16:06:06.618,134791,72767,49353,8,464877,339705
2025-02-21 16:06:06.665,135216,73229,49707,5,465918,341055
2025-02-21 16:06:06.769,130467,70907,47754,13,460963,334708
2025-02-21 16:06:07.006,129552,70224,47106,12,459555,332238
2025-02-21 16:06:07.008,130100,70377,47221,8,459871,332756
2025-02-21 16:06:07.153,130270,70417,47285,8,459952,332958
2025-02-21 16:06:07.160,131427,70949,47756,7,461200,334618
2025-02-21 16:06:07.338,132591,71648,48344,6,462684,336648
2025-02-21 16:06:07.360,133307,72203,48813,7,463917,338268
2025-02-21 16:06:07.483,134097,72738,49260,22,465041,339683
2025-02-21 16:06:07.676,135033,73289,49717,11,466188,341243
2025-02-21 16:06:07.680,135641,73642,49983,9,466838,342356
2025-02-21 16:06:07.898,130624,70986,47791,5,460797,335030
2025-02-21 16:06:07.901,129538,69743,46804,2,458259,331350
2025-02-21 16:06:08.091,129918,69769,46883,5,458489,331481
2025-02-21 16:06:08.094,130199,69926,47007,8,458766,331883
2025-02-21 16:06:08.247,131175,70405,47411,10,459756,333220
2025-02-21 16:06:08.256,132305,71085,47956,8,461040,335047
2025-02-21 16:06:08.425,133054,71641,48388,6,462052,336494
2025-02-21 16:06:08.448,133867,72198,48819,5,463053,337865
2025-02-21 16:06:08.587,134795,72806,49303,4,464236,339445
2025-02-21 16:06:08.814,135707,73382,49738,6,465305,340934
2025-02-21 16:06:08.816,132288,71741,48339,6,461237,336357
2025-02-21 16:06:08.849,130004,70079,47008,13,457500,331138
2025-02-21 16:06:08.963,130444,70158,47084,9,457789,331396
2025-02-21 16:06:09.151,130494,70234,47162,8,458078,331714
2025-02-21 16:06:09.153,131197,70586,47478,10,458830,332752
2025-02-21 16:06:09.300,132144,71137,47913,6,460077,334429
2025-02-21 16:06:09.332,132893,71654,48331,10,461164,335962
2025-02-21 16:06:09.553,133641,72118,48681,9,462057,337324
2025-02-21 16:06:09.556,134515,72709,49144,7,463268,338978
2025-02-21 16:06:09.703,134933,73149,49428,12,464182,340307
2025-02-21 16:06:09.723,130892,70848,47600,7,459520,334705
2025-02-21 16:06:09.886,130561,70172,47058,15,458512,333021
2025-02-21 16:06:09.927,131032,70213,47139,11,458876,333541
2025-02-21 16:06:10.047,131169,70183,47194,8,459084,333858
2025-02-21 16:06:10.237,132049,70617,47573,7,460303,335389
2025-02-21 16:06:10.240,133030,71151,48028,4,461520,337121
2025-02-21 16:06:10.456,133827,71619,48423,7,462460,338551
2025-02-21 16:06:10.459,134730,72102,48820,7,463469,340040
2025-02-21 16:06:10.634,135677,72645,49239,4,464595,341635
2025-02-21 16:06:10.637,136508,73134,49611,8,465536,343054
2025-02-21 16:06:10.787,133375,71326,48128,8,461817,339231
2025-02-21 16:06:10.803,131561,69534,46743,9,458942,335491
2025-02-21 16:06:10.968,131411,69027,46414,9,458138,334475
2025-02-21 16:06:10.991,131577,68920,46378,9,457947,334374
2025-02-21 16:06:11.224,132097,69144,46570,5,458449,335075
2025-02-21 16:06:11.226,132934,69645,46996,5,459466,336544
2025-02-21 16:06:11.415,133607,70148,47376,7,460318,337936
2025-02-21 16:06:11.417,134320,70686,47785,17,461392,339417
2025-02-21 16:06:11.573,135180,71214,48178,7,462481,340933
2025-02-21 16:06:11.599,134093,70567,47671,12,461069,339864
2025-02-21 16:06:11.768,131517,68379,45950,9,457577,335706
2025-02-21 16:06:11.792,131632,67930,45658,9,456734,334759
2025-02-21 16:06:11.971,131940,67894,45698,5,456243,334466
2025-02-21 16:06:11.991,132437,68080,45876,14,456306,334808
2025-02-21 16:06:12.159,133298,68573,46248,3,456956,335843
2025-02-21 16:06:12.183,134164,69100,46668,7,457753,337078
2025-02-21 16:06:12.388,134896,69544,47024,16,458418,338156
2025-02-21 16:06:12.390,135503,70017,47379,14,459212,339318
2025-02-21 16:06:12.568,132993,68484,46209,8,456987,336683
2025-02-21 16:06:12.575,132786,67781,45672,10,456117,335430
2025-02-21 16:06:12.719,133127,67893,45818,12,455918,335455
2025-02-21 16:06:12.997,133223,67965,45895,8,455983,335639
2025-02-21 16:06:12.999,134027,68498,46314,3,457071,336897
2025-02-21 16:06:13.001,134830,69065,46750,8,458146,338290
2025-02-21 16:06:13.147,135481,69567,47134,7,458999,339456
2025-02-21 16:06:13.158,136216,70131,47561,9,460240,340965
2025-02-21 16:06:13.329,134051,68890,46590,8,458364,339019
2025-02-21 16:06:13.359,132506,67269,45328,11,456199,336189
2025-02-21 16:06:13.477,132533,67006,45186,8,455739,335672
2025-02-21 16:06:13.664,132668,66980,45215,8,455336,335445
2025-02-21 16:06:13.667,133275,67333,45489,4,455737,336028
2025-02-21 16:06:13.818,134098,67930,45943,12,456547,337212
2025-02-21 16:06:13.843,134849,68488,46372,13,457436,338446
2025-02-21 16:06:14.075,135632,69051,46777,13,458293,339659
2025-02-21 16:06:14.078,136537,69550,47164,12,458888,340730
2025-02-21 16:06:14.236,137532,69946,47466,6,459002,341396
2025-02-21 16:06:14.243,135783,68885,46653,6,456430,339179
2025-02-21 16:06:14.414,134078,67105,45246,7,453266,335559
2025-02-21 16:06:14.435,134001,67039,45178,5,452704,334930
2025-02-21 16:06:14.637,133983,67299,45339,7,453105,335286
2025-02-21 16:06:14.640,134211,67678,45599,6,453619,335933
2025-02-21 16:06:14.826,134954,68250,45981,22,454383,337059
2025-02-21 16:06:14.829,135681,68788,46348,6,454951,338096
2025-02-21 16:06:14.974,136376,69323,46689,6,455543,339182
2025-02-21 16:06:15.163,137153,69895,47071,3,456273,340370
2025-02-21 16:06:15.166,137898,70440,47429,6,457003,341588
2025-02-21 16:06:15.323,138573,71104,47841,4,458167,343132
2025-02-21 16:06:15.330,136138,69899,46811,12,455762,340783
2025-02-21 16:06:15.514,135767,69158,46124,6,455127,339804
2025-02-21 16:06:15.523,136142,69277,46222,8,455190,339969
2025-02-21 16:06:15.731,136069,69277,46235,8,455034,339939
2025-02-21 16:06:15.733,136688,69717,46565,10,455760,340778
2025-02-21 16:06:15.953,137340,70291,46966,7,456656,341899
2025-02-21 16:06:15.957,137982,70820,47343,4,457620,343066
2025-02-21 16:06:16.116,138602,71317,47683,4,458482,344173
2025-02-21 16:06:16.120,139317,71913,48073,4,459543,345498
2025-02-21 16:06:16.329,139665,72395,48355,7,460516,346709
2025-02-21 16:06:16.332,136466,70349,46663,15,456707,342656
2025-02-21 16:06:16.700,135935,69490,45890,9,455688,341063
2025-02-21 16:06:16.703,135860,69270,45812,11,455177,340388
2025-02-21 16:06:16.706,135819,69257,45877,8,454904,339962
2025-02-21 16:06:16.709,136363,69710,46218,8,455664,340665
2025-02-21 16:06:16.972,137080,70254,46646,10,456631,341743
2025-02-21 16:06:16.977,137668,70767,47023,9,457441,342712
2025-02-21 16:06:16.994,138347,71278,47423,14,458270,343713
2025-02-21 16:06:17.149,139101,71862,47836,25,459383,345001
2025-02-21 16:06:17.194,138368,71540,47544,8,458526,344370
2025-02-21 16:06:17.343,135729,69602,45955,6,455347,340586
2025-02-21 16:06:17.387,135763,69372,45789,8,455162,340033
2025-02-21 16:06:17.553,135887,69531,45975,7,455626,340356
2025-02-21 16:06:17.586,136059,69664,46115,6,455869,340558
2025-02-21 16:06:17.740,136773,70253,46541,4,457053,341794
2025-02-21 16:06:17.778,137493,70733,46947,2,457666,342687
2025-02-21 16:06:17.891,138126,71210,47313,11,458274,343571
2025-02-21 16:06:18.154,138787,71775,47712,11,459267,344770
2025-02-21 16:06:18.156,139026,72190,47976,8,460013,345755
2025-02-21 16:06:18.181,136602,70421,46675,10,457574,343021
2025-02-21 16:06:18.304,136863,70246,46503,7,457791,343096
2025-02-21 16:06:18.488,137095,70419,46649,7,457952,343427
2025-02-21 16:06:18.491,137255,70515,46756,6,458204,343762
2025-02-21 16:06:18.642,137989,71161,47238,14,459678,345211
2025-02-21 16:06:18.661,138636,71739,47685,8,460754,346425
2025-02-21 16:06:18.830,139181,72159,48029,10,461489,347370
2025-02-21 16:06:18.865,139778,72555,48320,11,462082,348242
2025-02-21 16:06:18.979,139357,72412,48229,7,461751,348168
2025-02-21 16:06:19.235,136975,70249,46756,8,459251,345232
2025-02-21 16:06:19.237,136985,69913,46495,7,459100,344942
2025-02-21 16:06:19.245,136939,69962,46547,5,459314,345102
2025-02-21 16:06:19.385,136980,69980,46607,7,459377,345196
2025-02-21 16:06:19.583,137530,70409,46921,21,459846,345838
2025-02-21 16:06:19.586,138063,70932,47296,7,460516,346717
2025-02-21 16:06:19.801,138598,71422,47665,8,461220,347632
2025-02-21 16:06:19.803,139154,71906,48016,8,461922,348559
2025-02-21 16:06:19.840,139708,72422,48387,9,462800,349629
2025-02-21 16:06:19.979,137402,70780,47241,6,460518,347213
2025-02-21 16:06:20.125,136423,69487,46327,10,459041,345361
2025-02-21 16:06:20.129,136308,69273,46201,10,458527,344803
2025-02-21 16:06:20.331,136215,69188,46199,5,457938,344281
2025-02-21 16:06:20.334,136542,69470,46448,8,457982,344457
2025-02-21 16:06:20.490,137112,70003,46861,7,458394,345086
2025-02-21 16:06:20.517,137658,70554,47270,6,458988,345926
2025-02-21 16:06:20.678,138231,70992,47589,8,459445,346673
2025-02-21 16:06:20.717,138887,71386,47886,7,459699,347274
2025-02-21 16:06:20.887,139322,71725,48126,6,459843,347785
2025-02-21 16:06:20.896,136891,70199,46994,6,457446,345220
2025-02-21 16:06:21.065,136458,69560,46516,11,456912,344325
2025-02-21 16:06:21.089,136583,69719,46651,14,457064,344504
2025-02-21 16:06:21.217,136363,69648,46612,12,456763,344232
2025-02-21 16:06:21.423,136800,70011,46916,13,457107,344689
2025-02-21 16:06:21.426,137431,70549,47325,11,457748,345570
2025-02-21 16:06:21.632,137982,71004,47675,9,458439,346459
2025-02-21 16:06:21.635,138579,71507,48050,9,459274,347502
2025-02-21 16:06:21.821,139314,72123,48489,15,460594,348941
2025-02-21 16:06:21.823,137262,70857,47456,10,458520,346808
2025-02-21 16:06:21.993,135385,69189,46164,27,456083,343676
2025-02-21 16:06:21.998,135158,68912,45989,12,455409,342745
2025-02-21 16:06:22.249,134980,68700,45910,12,454588,341878
2025-02-21 16:06:22.252,135279,68808,46084,8,454342,341661
2025-02-21 16:06:22.268,135980,69337,46536,7,454893,342349
2025-02-21 16:06:22.409,136577,69886,46974,2,455600,343230
2025-02-21 16:06:22.659,137209,70385,47361,6,456346,344172
2025-02-21 16:06:22.661,137950,70934,47773,8,457294,345345
2025-02-21 16:06:22.663,138528,71413,48136,4,458146,346410
2025-02-21 16:06:22.813,135296,69488,46536,9,454889,342658
2025-02-21 16:06:22.860,134273,68396,45734,12,453283,340245
2025-02-21 16:06:23.002,134160,68248,45716,4,452770,339446
2025-02-21 16:06:23.169,134051,68150,45741,9,452388,338911
2025-02-21 16:06:23.172,134625,68434,46032,6,452573,339139
2025-02-21 16:06:23.350,135450,68943,46476,5,453050,339889
2025-02-21 16:06:23.352,136190,69426,46854,15,453627,340713
2025-02-21 16:06:23.524,136933,69943,47237,13,454361,341723
2025-02-21 16:06:23.556,137756,70497,47666,7,455320,342969
2025-02-21 16:06:23.730,138437,70988,48011,11,456144,344110
2025-02-21 16:06:23.748,135737,69475,46657,6,453357,340956
2025-02-21 16:06:23.884,135126,68653,46003,10,452139,339124
2025-02-21 16:06:24.095,135484,68740,46163,10,452133,339095
2025-02-21 16:06:24.097,135355,68673,46140,7,451874,338764
2025-02-21 16:06:24.127,135877,69013,46433,2,452448,339335
2025-02-21 16:06:24.314,136670,69627,46907,8,453557,340556
2025-02-21 16:06:24.332,137247,70207,47331,22,454664,341832
2025-02-21 16:06:24.494,137873,70715,47705,9,455728,343075
2025-02-21 16:06:24.519,138624,71276,48112,9,456894,344466
2025-02-21 16:06:24.652,136758,70450,47256,5,455483,342896
2025-02-21 16:06:24.846,134831,68840,45855,3,453084,339523
2025-02-21 16:06:24.848,134979,68693,45806,11,452878,339080
2025-02-21 16:06:25.061,134929,68584,45811,6,452374,338598
2025-02-21 16:06:25.063,135292,68877,46123,7,453165,339195
2025-02-21 16:06:25.104,136100,69530,46681,8,454602,340609
2025-02-21 16:06:25.249,136793,70120,47164,8,455840,341961
2025-02-21 16:06:25.414,137445,70624,47566,8,456858,343131
2025-02-21 16:06:25.417,138180,71160,47988,9,457776,344276
2025-02-21 16:06:25.596,138726,71605,48317,6,458472,345274
2025-02-21 16:06:25.606,135198,69571,46397,9,454823,340905
2025-02-21 16:06:25.756,134074,68413,45444,7,453190,338198
2025-02-21 16:06:25.799,133957,68210,45384,10,452887,337431
2025-02-21 16:06:25.962,133835,68200,45459,5,452876,337149
2025-02-21 16:06:25.980,134342,68608,45814,8,453676,337747
2025-02-21 16:06:26.175,135180,69275,46370,9,455076,339121
2025-02-21 16:06:26.183,135921,69826,46831,10,456149,340258
2025-02-21 16:06:26.359,136614,70378,47294,4,457185,341348
2025-02-21 16:06:26.383,137417,70959,47769,7,458140,342459
2025-02-21 16:06:26.516,138170,71556,48227,13,459183,343643
2025-02-21 16:06:26.772,135262,70080,46803,11,456951,340434
2025-02-21 16:06:26.775,133880,68678,45573,13,454894,336778
2025-02-21 16:06:26.777,134618,68819,45748,30,455677,337148
2025-02-21 16:06:26.915,135052,68925,45904,10,456480,337768
2025-02-21 16:06:27.104,135831,69370,46310,4,457545,338874
2025-02-21 16:06:27.107,136806,70093,46885,5,458975,340507
2025-02-21 16:06:27.253,137500,70700,47388,3,460134,341879
2025-02-21 16:06:27.268,138117,71205,47825,8,461026,342971
2025-02-21 16:06:27.461,138764,71701,48231,4,461843,344008
2025-02-21 16:06:27.464,139354,72217,48643,5,462643,345048
2025-02-21 16:06:27.612,136175,70527,47088,7,459624,341248
2025-02-21 16:06:27.650,134785,69342,46071,12,457883,338233
2025-02-21 16:06:27.864,135044,69473,46229,9,458284,338442
2025-02-21 16:06:27.866,134955,69492,46296,5,458496,338425
2025-02-21 16:06:28.023,135571,69966,46677,5,459551,339391
2025-02-21 16:06:28.043,136449,70631,47224,6,460871,340876
2025-02-21 16:06:28.206,137158,71154,47637,9,461835,342047
2025-02-21 16:06:28.247,137877,71610,48023,15,462576,343016
2025-02-21 16:06:28.419,138686,72162,48481,12,463510,344230
2025-02-21 16:06:28.447,139382,72734,48924,9,464424,345428
2025-02-21 16:06:28.599,138589,72536,48648,6,463862,344959
2025-02-21 16:06:28.649,134567,69918,46338,9,459283,338684
2025-02-21 16:06:28.757,134455,69587,46120,11,459063,337808
2025-02-21 16:06:28.945,134456,69607,46193,11,459363,337915
2025-02-21 16:06:28.948,134636,69765,46342,10,459881,338243
2025-02-21 16:06:29.097,135536,70399,46859,13,461150,339640
2025-02-21 16:06:29.131,136350,71035,47350,18,462321,341061
2025-02-21 16:06:29.299,137003,71484,47713,11,462937,341934
2025-02-21 16:06:29.323,137817,72007,48138,6,463706,343053
2025-02-21 16:06:29.530,138682,72646,48641,6,464733,344418
2025-02-21 16:06:29.532,139354,73188,49071,7,465608,345560
2025-02-21 16:06:29.711,139567,73513,49263,8,466013,346239
2025-02-21 16:06:29.714,135281,71021,47025,5,461058,340080
2025-02-21 16:06:29.872,134714,70284,46433,4,459785,337992
2025-02-21 16:06:29.914,135108,70357,46576,7,459907,338192
2025-02-21 16:06:30.058,135174,70372,46640,8,460146,338340
2025-02-21 16:06:30.279,136074,70923,47105,4,461436,339728
2025-02-21 16:06:30.282,136744,71486,47556,9,462330,340938
2025-02-21 16:06:30.310,137235,72008,47932,6,463136,341954
2025-02-21 16:06:30.464,137790,72453,48298,7,463920,342906
2025-02-21 16:06:30.510,138387,72967,48698,7,464716,343940
2025-02-21 16:06:30.612,138996,73555,49157,8,465834,345206
2025-02-21 16:06:30.804,136742,72573,48179,13,463996,342868
2025-02-21 16:06:30.806,134314,70860,46706,5,461314,338486
2025-02-21 16:06:30.968,135211,71072,46963,10,462247,339305
2025-02-21 16:06:30.994,135072,70978,46953,8,462280,339261
2025-02-21 16:06:31.234,135671,71178,47165,7,462841,339816
2025-02-21 16:06:31.237,136682,71732,47636,8,463757,341132
2025-02-21 16:06:31.383,137411,72206,48041,9,464503,342256
2025-02-21 16:06:31.387,138004,72611,48382,14,464939,343035
2025-02-21 16:06:31.570,138702,73182,48822,8,465960,344301
2025-02-21 16:06:31.578,139396,73740,49275,17,467002,345558
2025-02-21 16:06:31.724,137478,73003,48516,15,465570,343831
2025-02-21 16:06:31.913,133576,70462,46362,10,460975,337301
2025-02-21 16:06:31.916,133608,70186,46203,4,460795,336750
2025-02-21 16:06:32.068,133658,70185,46258,4,461019,336853
2025-02-21 16:06:32.071,133957,70348,46413,3,461514,337251
2025-02-21 16:06:32.297,134884,70937,46937,7,462786,338723
2025-02-21 16:06:32.300,135724,71495,47380,9,463801,340072
2025-02-21 16:06:32.452,136410,71981,47776,5,464600,341168
2025-02-21 16:06:32.455,137240,72533,48229,5,465547,342405
2025-02-21 16:06:32.647,138167,73124,48696,9,466531,343754
2025-02-21 16:06:32.652,138696,73556,49001,14,467244,344787
2025-02-21 16:06:32.798,134522,71200,46930,7,462492,338863
2025-02-21 16:06:33.041,133791,70493,46314,12,461431,336966
2025-02-21 16:06:33.043,133975,70577,46436,8,461853,337316
2025-02-21 16:06:33.046,133818,70582,46463,11,462136,337326
2025-02-21 16:06:33.189,134491,71245,46931,14,463894,338862
2025-02-21 16:06:33.237,135225,71895,47461,11,465437,340544
2025-02-21 16:06:33.383,135725,72338,47787,11,466170,341499
2025-02-21 16:06:33.538,136486,72807,48136,10,467201,342699
2025-02-21 16:06:33.541,137417,73321,48558,12,468193,343995
2025-02-21 16:06:33.797,135727,72516,47801,8,466552,342192
2025-02-21 16:06:33.799,133200,70849,46360,9,463773,337992
2025-02-21 16:06:33.833,133989,71163,46682,8,464725,338938
2025-02-21 16:06:33.955,133749,71039,46666,4,464702,338877
2025-02-21 16:06:34.146,133911,71106,46777,6,465104,339100
2025-02-21 16:06:34.149,134782,71651,47268,19,466205,340436
2025-02-21 16:06:34.296,135442,72139,47690,11,467106,341580
2025-02-21 16:06:34.325,135850,72521,48030,9,467859,342401
2025-02-21 16:06:34.506,135618,72598,48062,6,468187,342670
2025-02-21 16:06:34.525,131392,69927,45764,5,463828,336538
2025-02-21 16:06:34.709,131018,69253,45267,8,462931,334995
2025-02-21 16:06:34.712,131649,69187,45294,6,463375,335466
2025-02-21 16:06:34.895,131935,69144,45394,5,463316,335660
2025-02-21 16:06:34.897,132716,69567,45849,7,463960,336631
2025-02-21 16:06:35.047,133447,70139,46381,7,464972,337916
2025-02-21 16:06:35.088,134007,70521,46744,11,465615,338745
2025-02-21 16:06:35.243,134750,70920,47126,6,466077,339558
2025-02-21 16:06:35.465,134615,70918,47126,7,465886,339619
2025-02-21 16:06:35.468,130444,68255,44789,5,461050,333308
2025-02-21 16:06:35.480,129826,67426,44129,7,459991,331624
2025-02-21 16:06:35.646,130301,67432,44190,16,460402,331983
2025-02-21 16:06:35.664,130824,67620,44404,11,461130,332862
2025-02-21 16:06:35.798,131707,68119,44867,7,462440,334384
2025-02-21 16:06:35.982,132668,68661,45370,7,463532,335876
2025-02-21 16:06:35.985,133584,69095,45813,8,464302,337107
2025-02-21 16:06:36.137,134641,69575,46275,14,465093,338411
2025-02-21 16:06:36.148,135731,70120,46799,6,465962,339802
2025-02-21 16:06:36.383,136441,70540,47184,9,466673,340998
2025-02-21 16:06:36.385,133399,68150,45329,6,463121,336699
2025-02-21 16:06:36.534,132753,67017,44493,11,462015,335022
2025-02-21 16:06:36.551,133146,66777,44404,19,462054,335254
2025-02-21 16:06:36.750,133582,66858,44572,5,462738,336176
2025-02-21 16:06:36.753,134389,67259,44986,7,463915,337676
2025-02-21 16:06:36.897,135347,67769,45485,9,464842,339109
2025-02-21 16:06:36.940,136133,68202,45921,11,465480,340258
2025-02-21 16:06:37.150,136860,68701,46361,8,465980,341276
2025-02-21 16:06:37.153,137712,69216,46796,3,466544,342411
2025-02-21 16:06:37.352,138514,69766,47241,3,467180,343608
2025-02-21 16:06:37.357,136775,68431,46362,8,465398,341731
2025-02-21 16:06:37.579,136253,67392,45636,5,464408,340294
2025-02-21 16:06:37.582,136673,67561,45820,7,464618,340744
2025-02-21 16:06:37.615,136790,67479,45857,10,464609,340964
2025-02-21 16:06:37.743,137494,67895,46193,10,465247,341952
2025-02-21 16:06:37.929,138203,68539,46692,3,466402,343453
2025-02-21 16:06:37.932,138813,68926,47026,9,466986,344438
2025-02-21 16:06:38.142,139468,69352,47352,10,467469,345355
2025-02-21 16:06:38.144,140202,69854,47720,15,468111,346423
2025-02-21 16:06:38.324,138408,68411,46756,9,466425,344513
2025-02-21 16:06:38.327,137802,67280,45932,6,465808,343258
2025-02-21 16:06:38.471,137893,67197,45904,9,465902,343363
2025-02-21 16:06:38.512,137829,67144,45897,16,465923,343442
2025-02-21 16:06:38.664,138147,67457,46118,1,466216,343975
2025-02-21 16:06:38.703,138608,67994,46497,1,466685,344794
2025-02-21 16:06:38.888,139056,68546,46877,3,467391,345842
2025-02-21 16:06:38.895,139510,69002,47226,5,467947,346713
2025-02-21 16:06:39.066,139612,69319,47426,3,468265,347323
2025-02-21 16:06:39.095,136996,66997,45726,26,465303,343767
2025-02-21 16:06:39.218,136288,66037,44904,9,463878,341984
2025-02-21 16:06:39.411,136152,65981,44808,10,463106,341307
2025-02-21 16:06:39.414,136045,66102,44874,6,462592,341004
2025-02-21 16:06:39.572,136329,66689,45259,7,463028,341673
2025-02-21 16:06:39.587,136662,67363,45717,7,463738,342612
2025-02-21 16:06:39.758,137002,67831,46043,5,464005,343194
2025-02-21 16:06:39.779,137503,68333,46399,7,464210,343808
2025-02-21 16:06:39.973,137900,68916,46792,15,464797,344719
2025-02-21 16:06:39.978,135218,67089,45382,8,462314,341824
2025-02-21 16:06:40.149,133597,65635,44098,6,460635,339232
2025-02-21 16:06:40.175,133006,65319,43788,5,460131,338331
2025-02-21 16:06:40.298,132991,65471,43853,2,459936,338133
2025-02-21 16:06:40.496,133368,65875,44112,6,460100,338501
2025-02-21 16:06:40.499,134091,66521,44592,8,460791,339509
2025-02-21 16:06:40.650,134795,67156,45078,9,461468,340531
2025-02-21 16:06:40.654,135433,67778,45565,13,462349,341694
2025-02-21 16:06:40.837,136141,68446,46049,14,463329,342980
2025-02-21 16:06:40.855,136827,69082,46506,10,464233,344192
2025-02-21 16:06:40.987,137469,69658,46922,9,465253,345473
2025-02-21 16:06:41.176,135073,68018,45638,13,462852,342903
2025-02-21 16:06:41.179,133126,66122,44073,5,460336,339506
2025-02-21 16:06:41.335,132642,65743,43746,7,459848,338615
2025-02-21 16:06:41.359,132641,65853,43834,12,459843,338496
2025-02-21 16:06:41.580,132910,66235,44106,9,460426,339041
2025-02-21 16:06:41.582,133622,66963,44687,6,461542,340293
2025-02-21 16:06:41.727,134333,67654,45207,20,462538,341544
2025-02-21 16:06:41.743,134969,68368,45748,10,463751,342920
2025-02-21 16:06:41.933,135751,69038,46242,6,464916,344314
2025-02-21 16:06:41.942,136538,69698,46750,5,465967,345600
2025-02-21 16:06:42.090,137254,70314,47191,7,466982,346891
2025-02-21 16:06:42.346,136019,69653,46627,2,465911,345895
2025-02-21 16:06:42.349,133062,67048,44459,6,462109,341175
2025-02-21 16:06:42.352,132700,66651,44140,8,461499,340049
2025-02-21 16:06:42.518,132632,66683,44190,9,461345,339580
2025-02-21 16:06:42.526,132725,66923,44391,4,461651,339686
2025-02-21 16:06:42.706,133426,67616,44935,6,462762,340810
2025-02-21 16:06:42.718,134251,68378,45543,9,463967,342175
2025-02-21 16:06:42.858,134968,69047,46065,6,465020,343401
2025-02-21 16:06:43.054,135652,69701,46590,5,466403,344879
2025-02-21 16:06:43.056,136489,70242,47004,8,466890,345752
2025-02-21 16:06:43.214,137339,70712,47375,7,467323,346581
2025-02-21 16:06:43.217,136266,70285,46959,14,466307,345685
2025-02-21 16:06:43.452,133539,68138,45129,10,462906,341355
2025-02-21 16:06:43.455,133891,68113,45110,8,462681,340706
2025-02-21 16:06:43.494,134108,68330,45333,8,462846,340766
2025-02-21 16:06:43.599,134262,68495,45492,12,463198,340910
2025-02-21 16:06:43.791,135170,69156,46021,11,464182,342015
2025-02-21 16:06:43.797,136020,69905,46604,8,465424,343415
2025-02-21 16:06:44.016,136673,70503,47058,5,466353,344548
2025-02-21 16:06:44.018,137328,71055,47480,5,467170,345586
2025-02-21 16:06:44.203,137844,71615,47891,6,468000,346664
2025-02-21 16:06:44.205,135036,69981,46448,19,464994,343244
2025-02-21 16:06:44.361,134135,69094,45694,14,463826,341136
2025-02-21 16:06:44.378,134748,69586,46129,7,464516,341721
2025-02-21 16:06:44.550,134465,69681,46213,6,464635,341666
2025-02-21 16:06:44.581,134913,70056,46520,8,465389,342266
2025-02-21 16:06:44.709,135772,70755,47071,4,466563,343604
2025-02-21 16:06:44.896,136378,71444,47595,5,467901,345061
2025-02-21 16:06:44.899,136846,71992,48013,8,468988,346269
2025-02-21 16:06:45.102,137389,72524,48392,11,469997,347448
2025-02-21 16:06:45.104,134505,70964,46966,9,467238,344295
2025-02-21 16:06:45.145,132524,69187,45486,4,464247,340042
2025-02-21 16:06:45.288,132935,69335,45690,11,464335,339782
2025-02-21 16:06:45.439,132902,69497,45859,8,464666,339905
2025-02-21 16:06:45.442,133131,69904,46199,12,465675,340645
2025-02-21 16:06:45.622,134077,70707,46874,9,467361,342367
2025-02-21 16:06:45.636,134939,71399,47447,8,468686,343906
2025-02-21 16:06:45.837,135624,72004,47937,13,469717,345165
2025-02-21 16:06:45.839,136329,72644,48461,14,471020,346648
2025-02-21 16:06:46.020,136591,73055,48751,6,471922,347678
2025-02-21 16:06:46.023,132392,70238,46278,4,466355,341241
2025-02-21 16:06:46.168,131633,69202,45454,17,463396,337578
2025-02-21 16:06:46.213,132009,69352,45604,9,463203,337338
2025-02-21 16:06:46.357,132220,69515,45779,9,463339,337515
2025-02-21 16:06:46.518,132979,70054,46268,2,464311,338601
2025-02-21 16:06:46.520,134106,70877,46963,7,465762,340356
2025-02-21 16:06:46.776,134940,71580,47553,7,466957,341839
2025-02-21 16:06:46.778,135671,72197,48049,20,467907,343080
2025-02-21 16:06:46.818,136510,72861,48593,11,469028,344506
2025-02-21 16:06:46.921,137300,73472,49086,8,470163,345897
2025-02-21 16:06:47.107,135642,72720,48340,9,468561,344288
2025-02-21 16:06:47.110,131962,70111,46166,6,463719,337875
2025-02-21 16:06:47.260,132407,70117,46259,7,463547,337364
2025-02-21 16:06:47.297,132565,70289,46432,7,463830,337642
2025-02-21 16:06:47.515,132990,70460,46616,7,464080,337902
2025-02-21 16:06:47.517,134200,71180,47236,14,465458,339517
2025-02-21 16:06:47.666,135177,71931,47864,9,467047,341336
2025-02-21 16:06:47.692,136004,72369,48267,6,467661,342288
2025-02-21 16:06:47.855,136780,72842,48672,9,468206,343214
2025-02-21 16:06:47.880,137616,73429,49152,9,469134,344499
2025-02-21 16:06:48.017,137455,73587,49192,12,469072,344738
2025-02-21 16:06:48.211,133418,71089,47083,5,464088,338545
2025-02-21 16:06:48.214,133768,71050,47100,5,463983,337952
2025-02-21 16:06:48.363,134142,71459,47449,18,464688,338827
2025-02-21 16:06:48.383,133856,71404,47452,9,464672,338636
2025-02-21 16:06:48.600,134689,72033,47981,11,466088,340129
2025-02-21 16:06:48.603,135536,72753,48569,7,467616,341914
2025-02-21 16:06:48.753,136131,73225,48965,13,468454,343057
2025-02-21 16:06:48.777,136732,73688,49348,9,469312,344174
2025-02-21 16:06:48.942,136406,73761,49342,8,469427,344449
2025-02-21 16:06:48.979,132214,71082,47057,10,464387,338000
2025-02-21 16:06:49.093,132376,70871,46896,7,463978,336984
2025-02-21 16:06:49.278,132816,71171,47173,12,464625,337715
2025-02-21 16:06:49.281,132608,71150,47190,23,464905,337803
2025-02-21 16:06:49.429,133476,71795,47718,13,466461,339406
2025-02-21 16:06:49.472,134394,72508,48299,9,468047,341275
2025-02-21 16:06:49.618,135041,73037,48733,10,469103,342628
2025-02-21 16:06:49.664,135642,73481,49105,9,469817,343650
2025-02-21 16:06:49.773,136270,74024,49536,6,470862,344948
2025-02-21 16:06:49.964,132885,72370,47995,7,467785,341237
2025-02-21 16:06:49.967,130163,70232,46191,9,463982,335638
2025-02-21 16:06:50.114,130711,70273,46217,11,464111,335490
2025-02-21 16:06:50.155,130743,70290,46218,7,464406,335659
2025-02-21 16:06:50.360,131238,70626,46479,10,465251,336459
2025-02-21 16:06:50.363,132302,71385,47098,8,466956,338397
2025-02-21 16:06:50.511,133167,72011,47623,4,468289,340029
2025-02-21 16:06:50.548,133806,72510,48049,4,469218,341205
2025-02-21 16:06:50.692,134557,73077,48525,7,470247,342505
2025-02-21 16:06:50.739,135258,73606,48966,8,471179,343774
2025-02-21 16:06:50.921,131141,71254,46905,13,466765,338208
2025-02-21 16:06:50.931,129767,70028,45829,9,464434,334482
2025-02-21 16:06:51.096,130416,70358,46073,11,465127,335112
2025-02-21 16:06:51.131,130331,70353,46084,5,465631,335308
2025-02-21 16:06:51.244,131249,70752,46443,13,466568,336349
2025-02-21 16:06:51.436,132542,71432,47041,6,467877,338109
2025-02-21 16:06:51.438,133546,71965,47518,12,468785,339401
2025-02-21 16:06:51.591,134446,72445,47939,10,469492,340426
2025-02-21 16:06:51.628,135505,72900,48388,4,470239,341565
2025-02-21 16:06:51.782,133027,71532,47233,16,467253,338228
2025-02-21 16:06:51.827,131228,70248,46155,19,464781,334497
2025-02-21 16:06:51.995,132304,70884,46657,9,466244,336069
2025-02-21 16:06:52.027,131948,70793,46635,7,466254,335935
2025-02-21 16:06:52.204,132511,71077,46918,7,466872,336557
2025-02-21 16:06:52.231,133568,71756,47496,5,468212,338238
2025-02-21 16:06:52.359,134166,72279,47955,13,469318,339547
2025-02-21 16:06:52.587,134497,72717,48326,5,470253,340604
2025-02-21 16:06:52.590,134345,72888,48455,2,470758,341166
2025-02-21 16:06:52.610,130004,70269,46239,9,465669,334614
2025-02-21 16:06:52.801,129878,69867,45873,9,465093,333371
2025-02-21 16:06:52.815,130336,70088,46085,11,465870,334193
2025-02-21 16:06:52.980,130174,70063,46092,7,466008,334217
2025-02-21 16:06:53.014,131109,70706,46624,4,467470,335847
2025-02-21 16:06:53.138,132008,71438,47249,5,469166,337849
2025-02-21 16:06:53.329,132652,71823,47611,10,469707,338820
2025-02-21 16:06:53.331,133401,72261,47993,14,469882,339639
2025-02-21 16:06:53.493,134154,72798,48421,13,470513,340837
2025-02-21 16:06:53.498,130210,70704,46607,4,466368,335867
2025-02-21 16:06:53.732,127718,68960,45090,5,462932,330809
2025-02-21 16:06:53.734,127864,68836,44974,9,462749,330339
2025-02-21 16:06:53.883,128201,69012,45113,10,463287,330893
2025-02-21 16:06:53.891,128849,69430,45480,6,464243,332025
2025-02-21 16:06:54.073,130022,70164,46096,8,465709,333945
2025-02-21 16:06:54.082,130969,70788,46645,12,466850,335592
2025-02-21 16:06:54.218,131724,71398,47151,10,467837,337006
2025-02-21 16:06:54.472,132615,72033,47685,8,468939,338542
2025-02-21 16:06:54.474,133416,72625,48185,23,469946,339952
2025-02-21 16:06:54.477,134089,73162,48632,5,470852,341265
2025-02-21 16:06:54.629,130103,70952,46766,5,466326,335938
2025-02-21 16:06:54.666,127767,69098,45232,6,462528,330547
2025-02-21 16:06:54.812,128093,69014,45195,6,462286,330134
2025-02-21 16:06:54.968,128320,69154,45360,6,462824,330670
2025-02-21 16:06:54.971,129099,69601,45760,5,463922,331914
2025-02-21 16:06:55.161,130333,70350,46401,4,465380,333878
2025-02-21 16:06:55.164,131255,70979,46956,7,466575,335544
2025-02-21 16:06:55.310,131982,71487,47396,14,467353,336708
2025-02-21 16:06:55.350,132843,72142,47943,11,468500,338241
2025-02-21 16:06:55.561,133765,72761,48455,4,469483,339624
2025-02-21 16:06:55.563,134471,73251,48871,5,470133,340741
2025-02-21 16:06:55.708,130506,70996,47023,9,465307,335144
2025-02-21 16:06:55.756,129026,69720,45966,5,462632,331206
2025-02-21 16:06:55.901,129879,69958,46184,14,462868,331655
2025-02-21 16:06:56.117,129772,69855,46171,7,462616,331438
2025-02-21 16:06:56.119,130610,70321,46590,7,463524,332546
2025-02-21 16:06:56.146,131710,71006,47182,9,464838,334376
2025-02-21 16:06:56.300,132382,71571,47686,10,465851,335803
2025-02-21 16:06:56.347,132915,72128,48162,5,466892,337123
2025-02-21 16:06:56.445,133544,72771,48678,4,468225,338705
2025-02-21 16:06:56.643,133376,72886,48727,13,468275,339063
2025-02-21 16:06:56.649,128745,69992,46364,10,462527,331790
2025-02-21 16:06:56.802,128691,69702,46068,7,461935,330489
2025-02-21 16:06:56.850,129009,69973,46319,21,462713,331280
2025-02-21 16:06:56.995,128936,69998,46385,15,463146,331549
2025-02-21 16:06:57.042,129936,70653,46941,4,464728,333334
2025-02-21 16:06:57.211,130946,71270,47461,6,465944,335009
2025-02-21 16:06:57.233,131681,71725,47871,11,466702,336211
2025-02-21 16:06:57.393,132449,72225,48319,4,467572,337436
2025-02-21 16:06:57.425,133198,72879,48858,7,468854,339060
2025-02-21 16:06:57.561,133657,73413,49265,3,469864,340391
2025-02-21 16:06:57.750,128810,70598,46912,7,464387,333690
2025-02-21 16:06:57.753,127194,69137,45681,4,461641,329541
2025-02-21 16:06:57.909,127474,69049,45625,9,461520,329291
2025-02-21 16:06:57.917,127690,69023,45663,7,461682,329507
2025-02-21 16:06:58.099,128651,69529,46086,8,462741,330892
2025-02-21 16:06:58.109,129725,70184,46638,6,464027,332675
2025-02-21 16:06:58.256,130593,70754,47136,8,465126,334248
2025-02-21 16:06:58.445,131244,71360,47631,16,466279,335715
2025-02-21 16:06:58.447,132044,71996,48152,11,467484,337261
2025-02-21 16:06:58.607,132801,72665,48686,9,468780,338865
2025-02-21 16:06:58.613,131918,72466,48484,12,468529,338626
2025-02-21 16:06:58.801,126929,69225,45802,9,462226,330407
2025-02-21 16:06:58.803,127056,68795,45409,11,461171,328862
2025-02-21 16:06:59.007,127351,68861,45481,10,461394,329171
2025-02-21 16:06:59.010,127745,68909,45551,10,461553,329484
2025-02-21 16:06:59.187,129036,69573,46138,7,462970,331371
2025-02-21 16:06:59.205,130100,70283,46735,8,464369,333272
2025-02-21 16:06:59.350,130906,70792,47184,18,465244,334552
2025-02-21 16:06:59.599,131821,71359,47671,11,466146,335823
2025-02-21 16:06:59.601,132732,71958,48188,9,467093,337202
2025-02-21 16:06:59.608,133545,72485,48628,6,467747,338341
2025-02-21 16:06:59.748,131989,71797,48041,6,466029,336709
2025-02-21 16:06:59.938,127984,69221,45906,11,460677,329620
2025-02-21 16:06:59.941,128824,69515,46075,7,461156,329993
2025-02-21 16:07:00.098,128683,69575,46142,17,461436,330318
2025-02-21 16:07:00.101,128828,69622,46220,6,461656,330478
2025-02-21 16:07:00.287,129954,70342,46821,8,463218,332409
2025-02-21 16:07:00.292,130803,71045,47401,7,464723,334296
2025-02-21 16:07:00.440,131334,71568,47838,8,465758,335627
2025-02-21 16:07:00.697,132056,72128,48291,5,466903,337012
2025-02-21 16:07:00.699,132931,72727,48795,4,468058,338509
2025-02-21 16:07:00.702,133397,73140,49115,7,468794,339578
2025-02-21 16:07:00.849,128379,70247,46723,11,463099,332519
2025-02-21 16:07:00.885,126907,69031,45653,14,460783,328808
2025-02-21 16:07:01.034,127325,69088,45694,9,460937,328915
2025-02-21 16:07:01.077,127335,69017,45672,12,460980,328977
2025-02-21 16:07:01.254,128316,69465,46037,9,461884,330212
2025-02-21 16:07:01.281,129591,70199,46661,11,463349,332237
2025-02-21 16:07:01.447,130453,70815,47176,6,464566,333898
2025-02-21 16:07:01.481,131159,71385,47651,6,465644,335298
2025-02-21 16:07:01.599,131980,72027,48166,6,466824,336836
2025-02-21 16:07:01.792,132780,72650,48673,7,467983,338374
2025-02-21 16:07:01.794,132448,72693,48682,5,467864,338549
2025-02-21 16:07:01.952,127253,69454,46010,22,461205,330211
2025-02-21 16:07:01.964,126914,68907,45463,8,459951,328085
2025-02-21 16:07:02.143,127389,69037,45584,3,460298,328494
2025-02-21 16:07:02.163,127383,69054,45632,1,460674,328792
2025-02-21 16:07:02.351,128473,69688,46136,9,462078,330486
2025-02-21 16:07:02.364,129639,70370,46713,8,463475,332421
2025-02-21 16:07:02.534,130414,70896,47161,8,464421,333808
2025-02-21 16:07:02.555,131165,71417,47593,8,465412,335135
2025-02-21 16:07:02.730,132125,71923,48020,8,466224,336379
2025-02-21 16:07:02.748,133063,72477,48484,14,467086,337686
2025-02-21 16:07:02.918,131634,71898,47988,13,465634,336290
2025-02-21 16:07:02.948,127087,69031,45610,5,459451,328313
2025-02-21 16:07:03.149,127729,69131,45595,5,459425,328099
2025-02-21 16:07:03.152,127799,69133,45623,10,459489,328314
2025-02-21 16:07:03.326,127949,69199,45712,9,459736,328528
2025-02-21 16:07:03.351,129108,69894,46282,10,461180,330414
2025-02-21 16:07:03.477,129909,70537,46818,15,462563,332215
2025-02-21 16:07:03.667,130366,71043,47235,12,463617,333553
2025-02-21 16:07:03.670,131056,71583,47667,8,464716,334910
2025-02-21 16:07:03.830,131842,72166,48137,13,465834,336383
2025-02-21 16:07:03.843,128275,70249,46559,4,461805,331764
2025-02-21 16:07:04.020,125924,68621,45136,6,458334,326770
2025-02-21 16:07:04.047,126754,68907,45360,7,458984,327484
2025-02-21 16:07:04.232,126599,68823,45357,9,459116,327601
2025-02-21 16:07:04.247,127371,69224,45701,7,460136,328754
2025-02-21 16:07:04.428,128608,69965,46320,28,461716,330848
2025-02-21 16:07:04.439,129438,70549,46800,8,462854,332478
2025-02-21 16:07:04.578,130126,71061,47224,7,463813,333774
2025-02-21 16:07:04.835,130992,71662,47710,9,464914,335271
2025-02-21 16:07:04.838,131789,72281,48207,3,466097,336824
2025-02-21 16:07:04.842,128466,70490,46743,7,462288,332574
2025-02-21 16:07:04.980,125290,68242,44864,5,457319,325923
2025-02-21 16:07:05.166,125878,68307,44910,7,457475,326013
2025-02-21 16:07:05.169,125688,68313,44967,6,457858,326301
2025-02-21 16:07:05.330,126276,68647,45248,15,458742,327288
2025-02-21 16:07:05.335,127482,69395,45854,9,460361,329385
2025-02-21 16:07:05.526,128344,70000,46356,8,461700,331128
2025-02-21 16:07:05.538,128995,70501,46751,5,462641,332411
2025-02-21 16:07:05.681,129721,71094,47226,3,463863,333935
2025-02-21 16:07:05.727,130567,71739,47743,5,465121,335535
2025-02-21 16:07:05.938,131125,72283,48153,6,466104,336845
2025-02-21 16:07:05.940,126529,69579,45956,10,460342,330111
2025-02-21 16:07:06.081,124915,68095,44696,14,456863,325413
2025-02-21 16:07:06.267,125669,68210,44819,4,457051,325762
2025-02-21 16:07:06.270,125851,68130,44847,9,457183,325978
2025-02-21 16:07:06.427,126964,68623,45265,12,458343,327433
2025-02-21 16:07:06.430,128287,69374,45888,6,459910,329502
2025-02-21 16:07:06.606,129077,69915,46350,10,460878,330830
2025-02-21 16:07:06.622,129815,70392,46754,9,461641,331934
2025-02-21 16:07:06.761,130639,70968,47238,17,462644,333289
2025-02-21 16:07:06.946,131270,71612,47740,8,463984,334853
2025-02-21 16:07:06.949,129784,71097,47279,18,462764,333688
2025-02-21 16:07:07.104,125404,68387,45071,8,456686,326012
2025-02-21 16:07:07.126,126383,68750,45255,8,457303,326491
2025-02-21 16:07:07.294,126548,68819,45374,6,457621,326940
2025-02-21 16:07:07.318,126721,68891,45484,5,457881,327209
2025-02-21 16:07:07.460,127790,69587,46054,10,459574,329188
2025-02-21 16:07:07.699,128758,70203,46567,10,460893,330967
2025-02-21 16:07:07.701,129414,70702,46987,6,461852,332291
2025-02-21 16:07:07.703,130083,71267,47437,4,463012,333722
2025-02-21 16:07:07.853,130901,71909,47939,3,464268,335303
2025-02-21 16:07:07.902,131550,72418,48346,11,465282,336640
2025-02-21 16:07:08.047,126503,69702,46139,10,459527,329870
2025-02-21 16:07:08.274,124383,68158,44786,10,456094,325028
2025-02-21 16:07:08.278,124541,68163,44809,4,456269,325049
2025-02-21 16:07:08.295,124212,68113,44773,9,456421,325099
2025-02-21 16:07:08.459,124991,68443,45046,12,457080,326040
2025-02-21 16:07:08.486,126252,69102,45588,11,458580,327982
2025-02-21 16:07:08.627,127128,69727,46097,9,459920,329725
2025-02-21 16:07:08.809,127817,70263,46525,7,460961,331075
2025-02-21 16:07:08.812,128715,70846,46995,8,462144,332589
2025-02-21 16:07:08.970,129813,71379,47452,10,463067,334005
2025-02-21 16:07:08.973,130485,71811,47812,5,463806,335191
2025-02-21 16:07:09.163,125312,68847,45435,8,457328,327630
2025-02-21 16:07:09.170,123980,67748,44433,11,454703,323978
2025-02-21 16:07:09.369,124485,67790,44488,6,454933,324258
2025-02-21 16:07:09.372,124516,67758,44530,10,455099,324479
2025-02-21 16:07:09.556,125602,68319,44980,22,456376,326051
2025-02-21 16:07:09.573,126886,69083,45586,9,458013,328151
2025-02-21 16:07:09.710,127670,69675,46061,6,459244,329711
2025-02-21 16:07:09.964,128420,70201,46494,6,460246,330991
2025-02-21 16:07:09.966,129530,70737,46941,8,461069,332267
2025-02-21 16:07:09.968,130502,71307,47412,10,462039,333663
2025-02-21 16:07:10.115,131049,71879,47870,8,463174,335049
2025-02-21 16:07:10.311,126410,69425,45908,8,457646,328645
2025-02-21 16:07:10.314,124883,68205,44818,10,454813,324722
2025-02-21 16:07:10.463,125779,68479,45037,7,455364,325534
2025-02-21 16:07:10.469,125448,68279,44960,8,455098,325288
2025-02-21 16:07:10.653,126077,68742,45333,8,456329,326552
2025-02-21 16:07:10.658,127068,69407,45881,4,457875,328432
2025-02-21 16:07:10.814,127809,69908,46316,6,458894,329822
2025-02-21 16:07:10.840,128526,70310,46657,4,459575,330830
2025-02-21 16:07:11.076,129524,70886,47117,8,460660,332327
2025-02-21 16:07:11.079,130412,71512,47612,15,461955,333936
2025-02-21 16:07:11.245,127846,70331,46658,10,459397,331142
2025-02-21 16:07:11.249,123563,67771,44537,16,453655,323742
2025-02-21 16:07:11.447,123970,67717,44449,8,453557,323467
2025-02-21 16:07:11.449,124216,67705,44491,6,453741,323804
2025-02-21 16:07:11.673,124625,67904,44693,7,454280,324494
2025-02-21 16:07:11.676,125927,68658,45297,6,455988,326589
2025-02-21 16:07:11.864,126922,69303,45837,6,457514,328460
2025-02-21 16:07:11.866,127645,69835,46272,9,458606,329847
2025-02-21 16:07:12.017,128476,70429,46758,7,459787,331346
2025-02-21 16:07:12.020,129311,71023,47214,14,460969,332849
2025-02-21 16:07:12.216,130083,71590,47653,4,462122,334294
2025-02-21 16:07:12.219,126357,69677,46104,3,457848,329544
2025-02-21 16:07:12.368,122868,67529,44280,7,452926,323085
2025-02-21 16:07:12.409,123201,67424,44202,7,452734,322779
2025-02-21 16:07:12.572,123243,67362,44210,4,452922,322978
2025-02-21 16:07:12.613,124040,67771,44540,9,453969,324209
2025-02-21 16:07:12.790,125366,68527,45149,3,455684,326330
2025-02-21 16:07:12.801,126270,69102,45634,7,456940,327944
2025-02-21 16:07:13.023,127035,69575,46015,3,457827,329130
2025-02-21 16:07:13.026,128164,70086,46446,6,458684,330422
2025-02-21 16:07:13.175,129352,70645,46908,8,459567,331834
2025-02-21 16:07:13.196,130205,71189,47358,6,460633,333250
2025-02-21 16:07:13.438,125952,68903,45558,9,455219,327231
2025-02-21 16:07:13.441,124118,67526,44350,5,451807,322784
2025-02-21 16:07:13.588,124841,67711,44505,9,452234,323366
2025-02-21 16:07:13.596,124612,67593,44481,21,452105,323263
2025-02-21 16:07:13.771,125511,68042,44848,8,453106,324496
2025-02-21 16:07:13.789,126724,68765,45438,2,454652,326493
2025-02-21 16:07:13.938,127520,69351,45911,9,455823,328007
2025-02-21 16:07:14.142,128150,69803,46277,9,456665,329119
2025-02-21 16:07:14.144,128973,70403,46728,7,457832,330574
2025-02-21 16:07:14.181,129899,70979,47196,7,458953,332060
2025-02-21 16:07:14.301,127047,69522,46034,10,455570,328478
2025-02-21 16:07:14.548,123623,67359,44238,6,450497,321986
2025-02-21 16:07:14.550,124264,67417,44294,12,450801,322258
2025-02-21 16:07:14.572,124375,67432,44377,7,451206,322698
2025-02-21 16:07:14.690,124955,67709,44644,15,452043,323650
2025-02-21 16:07:14.893,126352,68431,45236,12,453676,325718
2025-02-21 16:07:14.895,127362,69060,45748,8,455054,327442
2025-02-21 16:07:15.052,128100,69565,46173,7,456122,328771
2025-02-21 16:07:15.055,128966,70162,46674,6,457378,330271
2025-02-21 16:07:15.231,129850,70842,47195,7,458811,331931
2025-02-21 16:07:15.248,130597,71392,47633,7,459940,333312
2025-02-21 16:07:15.393,126289,69017,45747,7,454313,327201
2025-02-21 16:07:15.583,124026,67237,44246,7,450080,321955
2025-02-21 16:07:15.586,124701,67128,44213,4,449807,321919
2025-02-21 16:07:15.746,125013,67140,44309,8,450051,322335
2025-02-21 16:07:15.748,125797,67558,44669,8,451225,323645
2025-02-21 16:07:15.933,127031,68309,45277,7,452969,325725
2025-02-21 16:07:15.936,127879,68915,45789,6,454279,327339
2025-02-21 16:07:16.147,128740,69403,46210,9,455204,328529
2025-02-21 16:07:16.149,129682,69917,46655,12,456191,329859
2025-02-21 16:07:16.336,130602,70406,47091,8,457007,331034
2025-02-21 16:07:16.339,130166,70272,46992,12,456470,330728
2025-02-21 16:07:16.480,125932,67423,44773,8,449676,322887
2025-02-21 16:07:16.528,127044,67451,44705,9,449570,322800
2025-02-21 16:07:16.672,127702,67847,45056,10,450740,324158
2025-02-21 16:07:16.720,127594,67771,45097,6,451014,324286
2025-02-21 16:07:16.902,129043,68368,45617,8,452472,326077
2025-02-21 16:07:16.919,130147,69004,46168,8,453776,327797
2025-02-21 16:07:17.089,130824,69401,46556,5,454483,328743
2025-02-21 16:07:17.119,131692,69905,46978,7,455386,329882
2025-02-21 16:07:17.246,132607,70488,47444,3,456690,331342
2025-02-21 16:07:17.438,129724,68964,46253,20,453204,327615
2025-02-21 16:07:17.440,126261,66703,44354,7,448569,321656
2025-02-21 16:07:17.593,126400,66608,44212,6,448883,321856
2025-02-21 16:07:17.616,126397,66637,44253,5,449354,322311
2025-02-21 16:07:17.782,126653,66977,44499,10,450539,323382
2025-02-21 16:07:17.807,127497,67655,45009,4,452580,325468
2025-02-21 16:07:17.998,128168,68276,45497,5,454344,327293
2025-02-21 16:07:18.001,128673,68783,45894,7,455597,328591
2025-02-21 16:07:18.179,129392,69405,46356,8,456793,329941
2025-02-21 16:07:18.199,130191,70060,46815,6,457977,331366
2025-02-21 16:07:18.335,129725,69876,46657,6,457233,330913
2025-02-21 16:07:18.528,124646,66563,43941,5,450001,322485
2025-02-21 16:07:18.531,124508,66038,43434,0,449143,321338
2025-02-21 16:07:18.750,125069,65981,43419,5,449382,321745
2025-02-21 16:07:18.753,125806,66059,43556,3,449848,322414
2025-02-21 16:07:18.928,127109,66766,44152,10,451504,324416
2025-02-21 16:07:18.930,128125,67417,44700,13,452891,326161
2025-02-21 16:07:19.081,128861,67964,45157,12,454039,327514
2025-02-21 16:07:19.095,129715,68472,45601,5,455016,328756
2025-02-21 16:07:19.276,130642,69080,46090,11,456053,330128
2025-02-21 16:07:19.286,129868,68935,45978,16,455852,329996
2025-02-21 16:07:19.441,125580,66141,43794,11,450767,323591
2025-02-21 16:07:19.475,125724,66079,43633,9,451328,323760
2025-02-21 16:07:19.691,125902,66115,43692,8,452277,324693
2025-02-21 16:07:19.693,126068,66112,43752,12,452988,325329
2025-02-21 16:07:19.835,127106,66800,44291,6,454861,327377
2025-02-21 16:07:19.871,127999,67525,44878,9,456805,329559
2025-02-21 16:07:20.027,128841,67995,45300,24,458466,331339
2025-02-21 16:07:20.071,129691,68505,45698,10,458766,332191
2025-02-21 16:07:20.249,130703,69125,46143,8,459171,333292
2025-02-21 16:07:20.270,128474,67550,44963,5,456064,330365
2025-02-21 16:07:20.440,125865,65083,42974,6,451589,324884
2025-02-21 16:07:20.463,125936,64752,42653,5,451036,324318
2025-02-21 16:07:20.604,126299,64904,42754,8,451392,324870
2025-02-21 16:07:20.796,126879,65306,43057,7,452417,326006
2025-02-21 16:07:20.798,127954,66126,43669,6,454283,328117
2025-02-21 16:07:20.957,128754,66881,44247,8,455932,330047
2025-02-21 16:07:20.961,129526,67521,44737,10,457352,331652
2025-02-21 16:07:21.148,130394,68216,45247,14,458554,333192
2025-02-21 16:07:21.150,131348,68903,45752,9,459723,334687
2025-02-21 16:07:21.355,132264,69429,46154,11,460340,335683
2025-02-21 16:07:21.357,132449,69606,46282,5,460548,336199
2025-02-21 16:07:21.544,128465,66357,43875,8,455569,330179
2025-02-21 16:07:21.547,128173,65642,43237,7,454355,328443
2025-02-21 16:07:21.692,128149,65741,43232,15,454701,328773
2025-02-21 16:07:21.722,127917,65811,43256,9,455333,329227
2025-02-21 16:07:21.885,128430,66409,43654,7,456658,330615
2025-02-21 16:07:21.922,128971,67133,44171,11,457949,332122
2025-02-21 16:07:22.123,129348,67712,44574,6,458855,333266
2025-02-21 16:07:22.126,129808,68391,45045,7,460191,334725
2025-02-21 16:07:22.323,130530,69023,45464,9,461030,335936
2025-02-21 16:07:22.326,130943,69273,45637,6,461131,336451
2025-02-21 16:07:22.482,127360,66485,43547,8,456196,331026
2025-02-21 16:07:22.506,126466,65581,42775,3,455089,329041
2025-02-21 16:07:22.666,126790,65683,42772,20,455244,329168
2025-02-21 16:07:22.705,126822,65705,42782,6,455329,329197
2025-02-21 16:07:22.824,127552,66365,43252,8,456352,330385
2025-02-21 16:07:23.108,128332,67213,43871,10,458067,332294
2025-02-21 16:07:23.111,128960,67842,44319,4,458936,333460
2025-02-21 16:07:23.113,129710,68446,44750,6,459919,334734
2025-02-21 16:07:23.265,130497,69162,45265,9,460970,336122
2025-02-21 16:07:23.302,131150,69867,45765,10,462152,337586
2025-02-21 16:07:23.451,130215,69051,45119,7,460513,336278
2025-02-21 16:07:23.610,126531,65554,42467,9,454076,328863
2025-02-21 16:07:23.613,126788,65136,42096,10,452859,327286
2025-02-21 16:07:23.804,127171,65203,42162,6,452578,327045
2025-02-21 16:07:23.807,127573,65529,42408,5,452824,327368
2025-02-21 16:07:23.957,128627,66397,43036,4,454210,328953
2025-02-21 16:07:23.994,129522,67274,43690,6,455733,330670
2025-02-21 16:07:24.145,130095,68006,44231,8,457266,332260
2025-02-21 16:07:24.304,131094,68523,44627,15,457962,333235
2025-02-21 16:07:24.307,132086,69142,45098,6,458486,334187
2025-02-21 16:07:24.496,132804,69901,45623,13,459639,335608
2025-02-21 16:07:24.498,130119,68309,44370,6,456895,332622
2025-02-21 16:07:24.716,127883,66306,42863,12,453586,328067
2025-02-21 16:07:24.718,128619,66597,43022,8,453903,328297
2025-02-21 16:07:24.906,128531,66431,42906,12,453326,327806
2025-02-21 16:07:24.909,129299,66804,43167,6,453644,328224
2025-02-21 16:07:25.064,130451,67531,43722,14,454728,329620
2025-02-21 16:07:25.093,131235,68199,44236,15,455776,330953
2025-02-21 16:07:25.266,131674,68763,44650,24,456911,332150
2025-02-21 16:07:25.285,132453,69323,45087,13,457808,333273
2025-02-21 16:07:25.483,130791,68422,44385,7,456097,331609
2025-02-21 16:07:25.486,127898,66248,42730,8,452292,326620
2025-02-21 16:07:25.664,128523,66698,43027,10,453413,327440
2025-02-21 16:07:25.686,128214,66746,43046,8,453846,327785
2025-02-21 16:07:25.827,128520,67061,43259,3,454694,328506
2025-02-21 16:07:26.032,129643,67921,43904,5,456516,330439
2025-02-21 16:07:26.036,130343,68662,44455,9,458206,332208
2025-02-21 16:07:26.081,130771,69228,44887,5,459805,333748
2025-02-21 16:07:26.185,131405,69758,45292,6,461090,335167
2025-02-21 16:07:26.385,127715,66993,43204,3,456805,330276
2025-02-21 16:07:26.388,126204,65192,41890,8,454236,326523
2025-02-21 16:07:26.605,126462,64919,41770,8,454050,326206
2025-02-21 16:07:26.608,126761,65041,41961,6,454814,326903
2025-02-21 16:07:26.786,127657,65561,42433,9,456345,328435
2025-02-21 16:07:26.789,128768,66293,43053,14,458142,330433
2025-02-21 16:07:26.941,129500,66809,43510,8,459312,331902
2025-02-21 16:07:26.977,130380,67307,43972,6,460207,333142
2025-02-21 16:07:27.189,131310,67902,44479,11,460985,334324
2025-02-21 16:07:27.191,130237,67111,43916,12,460076,333563
2025-02-21 16:07:27.341,126888,63822,41483,2,455451,327722
2025-02-21 16:07:27.369,126677,63139,41022,7,454907,326595
2025-02-21 16:07:27.538,127107,63194,41146,7,455504,327049
2025-02-21 16:07:27.569,127712,63468,41428,8,456197,327827
2025-02-21 16:07:27.689,128583,64336,42139,4,458486,330098
2025-02-21 16:07:27.886,129430,65002,42674,23,459883,331723
2025-02-21 16:07:27.888,130365,65670,43216,13,460726,333005
2025-02-21 16:07:28.041,131440,66513,43860,7,462144,334812
2025-02-21 16:07:28.061,132545,67325,44490,5,463324,336398
2025-02-21 16:07:28.236,133574,68170,45133,8,464901,338214
2025-02-21 16:07:28.253,134338,68865,45665,5,466330,339821
2025-02-21 16:07:28.445,131368,66021,43554,2,461831,335242
2025-02-21 16:07:28.456,130837,64588,42508,9,459302,332238
2025-02-21 16:07:28.625,131185,64690,42610,5,459024,331961
2025-02-21 16:07:28.644,131049,64792,42719,3,459487,332344
2025-02-21 16:07:28.779,131601,65293,43110,7,460291,333244
2025-02-21 16:07:29.037,132209,66205,43779,5,461997,335096
2025-02-21 16:07:29.040,132721,66855,44259,8,463690,336794
2025-02-21 16:07:29.043,133704,67196,44537,7,463610,337164
2025-02-21 16:07:29.185,134843,67716,44953,5,463671,337712
2025-02-21 16:07:29.373,135723,68440,45489,3,464021,338482
2025-02-21 16:07:29.376,133228,66261,43761,9,460612,334984
2025-02-21 16:07:29.524,132706,64846,42631,11,457675,331778
2025-02-21 16:07:29.532,133637,65224,42902,10,458413,332506
2025-02-21 16:07:29.712,133412,65621,43202,9,459909,333781
2025-02-21 16:07:29.724,133382,66221,43631,7,461834,335378
2025-02-21 16:07:29.865,133714,66945,44178,7,463131,336754
2025-02-21 16:07:30.108,133873,67545,44586,15,464437,338111
2025-02-21 16:07:30.111,134327,68058,44953,9,465614,339376
2025-02-21 16:07:30.116,135181,68605,45378,9,466658,340574
2025-02-21 16:07:30.269,135899,69021,45710,9,466427,340884
2025-02-21 16:07:30.317,133897,67615,44557,8,463855,338498
2025-02-21 16:07:30.458,131451,65135,42627,20,460430,334057
2025-02-21 16:07:30.686,131468,64978,42520,8,460134,333426
2025-02-21 16:07:30.689,131435,65198,42683,8,461206,334148
2025-02-21 16:07:30.700,131370,65534,42985,6,463177,335587
2025-02-21 16:07:30.870,131911,66185,43498,5,463898,336583
2025-02-21 16:07:30.904,132602,66848,43968,6,464563,337663
2025-02-21 16:07:31.036,133248,67405,44405,3,465236,338673
2025-02-21 16:07:31.220,134114,68027,44889,14,465832,339705
2025-02-21 16:07:31.222,135032,68785,45446,3,466829,341017
2025-02-21 16:07:31.377,135707,69529,46010,8,468315,342629
2025-02-21 16:07:31.384,132882,67587,44453,13,465461,339565
2025-02-21 16:07:31.570,130971,65539,42863,6,462690,335695
2025-02-21 16:07:31.576,131297,65682,42997,7,462774,335484
2025-02-21 16:07:31.780,131206,65660,43005,2,462641,335286
2025-02-21 16:07:31.782,131794,65945,43245,1,462667,335438
2025-02-21 16:07:31.958,132866,66699,43868,4,463418,336557
2025-02-21 16:07:31.979,133717,67357,44408,10,464097,337608
2025-02-21 16:07:32.118,134446,67914,44868,5,464797,338552
2025-02-21 16:07:32.311,135284,68452,45310,11,465386,339470
2025-02-21 16:07:32.313,136053,68850,45646,17,465560,340034
2025-02-21 16:07:32.466,132700,66417,43692,10,460832,335091
2025-02-21 16:07:32.470,131821,65677,43107,5,459818,333188
2025-02-21 16:07:32.671,132191,66249,43552,9,461023,334147
2025-02-21 16:07:32.674,131840,66253,43556,8,461218,334113
2025-02-21 16:07:32.838,132407,66770,43954,6,462165,335041
2025-02-21 16:07:32.855,133385,67669,44655,4,463699,336774
2025-02-21 16:07:33.027,134142,68356,45188,14,465026,338258
2025-02-21 16:07:33.055,134795,68880,45620,7,465721,339223
2025-02-21 16:07:33.232,135496,69540,46117,6,466778,340513
2025-02-21 16:07:33.255,135069,69568,46070,1,466784,340714
2025-02-21 16:07:33.475,130514,66365,43410,5,461523,334255
2025-02-21 16:07:33.477,130266,65896,43105,3,460733,332679
2025-02-21 16:07:33.624,130422,66005,43215,5,460584,332406
2025-02-21 16:07:33.639,130461,65941,43206,6,460176,331966
2025-02-21 16:07:33.819,131540,66542,43731,3,460899,332909
2025-02-21 16:07:33.831,132633,67284,44366,7,461792,334259
2025-02-21 16:07:33.977,133589,67798,44847,6,462202,335204
2025-02-21 16:07:34.239,134528,68413,45393,8,463006,336370
2025-02-21 16:07:34.241,135607,69106,45976,11,464151,337801
2025-02-21 16:07:34.243,135054,68998,45827,8,463672,337581
2025-02-21 16:07:34.389,131491,66360,43641,4,458869,331963
2025-02-21 16:07:34.415,131820,66205,43573,7,458462,331039
2025-02-21 16:07:34.579,132337,66550,43860,7,459032,331636
2025-02-21 16:07:34.603,132420,66641,43982,7,459588,332050
2025-02-21 16:07:34.739,133334,67419,44608,3,461249,333764
2025-02-21 16:07:34.925,134150,68224,45229,7,462934,335625
2025-02-21 16:07:34.928,134659,68802,45685,5,464320,337100
2025-02-21 16:07:35.146,135299,69363,46100,7,465405,338393
2025-02-21 16:07:35.148,135482,69540,46213,8,465662,338956
2025-02-21 16:07:35.324,132820,67106,44208,12,462187,334755
2025-02-21 16:07:35.327,133589,67250,44357,9,463537,335402
2025-02-21 16:07:35.474,133736,67507,44559,11,463846,336100
2025-02-21 16:07:35.498,133146,67796,44716,7,465020,337129
2025-02-21 16:07:35.670,133525,68603,45311,25,467221,339242
2025-02-21 16:07:35.702,133931,69399,45878,14,469100,341227
2025-02-21 16:07:35.897,134572,70017,46342,7,471144,343191
2025-02-21 16:07:35.902,135543,70594,46922,11,472398,344597
2025-02-21 16:07:36.079,134851,70250,46677,8,472660,344824
2025-02-21 16:07:36.106,131811,67004,44147,6,469107,340240
2025-02-21 16:07:36.237,131891,66717,43976,3,469017,339841
2025-02-21 16:07:36.431,131848,66687,43992,5,469652,340297
2025-02-21 16:07:36.434,132057,66764,44123,4,470092,340742
2025-02-21 16:07:36.587,132949,67479,44710,6,470966,341989
2025-02-21 16:07:36.598,133777,68127,45232,7,471735,343176
2025-02-21 16:07:36.777,134428,68792,45732,4,472579,344339
2025-02-21 16:07:36.798,135047,69630,46367,9,474374,346185
2025-02-21 16:07:36.993,135291,70133,46734,11,475627,347494
2025-02-21 16:07:36.996,132328,66934,44260,7,472384,343454
2025-02-21 16:07:37.194,132239,65877,43480,11,470213,340989
2025-02-21 16:07:37.197,132821,65834,43485,11,468659,339987
2025-02-21 16:07:37.346,133301,65925,43588,12,467836,339544
2025-02-21 16:07:37.374,134050,66715,44191,10,468840,340721
2025-02-21 16:07:37.608,134741,67550,44816,7,470024,342096
2025-02-21 16:07:37.610,135370,68378,45396,8,471428,343658
2025-02-21 16:07:37.771,135888,69249,45981,12,473161,345416
2025-02-21 16:07:37.774,136318,70125,46574,12,474713,347101
2025-02-21 16:07:37.956,135596,69999,46395,8,475178,347574
2025-02-21 16:07:37.959,133121,67302,44255,2,473104,344424
2025-02-21 16:07:38.115,133381,67549,44438,10,474747,345369
2025-02-21 16:07:38.150,133154,67702,44543,10,475858,346130
2025-02-21 16:07:38.307,133120,67726,44556,6,477132,346903
2025-02-21 16:07:38.350,133816,68501,45164,8,479226,348757
2025-02-21 16:07:38.462,134326,69286,45706,6,480417,350056
2025-02-21 16:07:38.716,134831,69869,46068,2,481287,351101
2025-02-21 16:07:38.718,135562,70226,46265,5,480837,351308
2025-02-21 16:07:38.753,133766,67312,43930,9,474936,346106
2025-02-21 16:07:38.866,133756,66248,43057,8,471102,342717
2025-02-21 16:07:39.061,134066,66555,43276,3,470580,342492
2025-02-21 16:07:39.063,134199,66779,43437,0,470265,342412
2025-02-21 16:07:39.218,134660,67681,44115,13,472122,344217
2025-02-21 16:07:39.245,135237,68577,44810,2,473903,346053
2025-02-21 16:07:39.473,135842,69079,45197,7,474392,346947
2025-02-21 16:07:39.475,136617,69653,45631,2,474427,347540
2025-02-21 16:07:39.626,136703,69642,45590,8,473780,347458
2025-02-21 16:07:39.636,134600,66499,43158,5,469704,343101
2025-02-21 16:07:39.806,134611,65959,42775,6,467945,341459
2025-02-21 16:07:39.828,134666,66147,42938,8,467875,341538
2025-02-21 16:07:39.959,135060,66414,43171,5,467831,341826
2025-02-21 16:07:40.146,135885,67110,43735,8,468200,342680
2025-02-21 16:07:40.148,136585,67800,44283,7,468320,343354
2025-02-21 16:07:40.360,137173,68429,44745,8,468610,344143
2025-02-21 16:07:40.362,137862,69219,45314,7,469296,345273
2025-02-21 16:07:40.552,137543,69202,45310,10,469345,345625
2025-02-21 16:07:40.554,135942,66634,43458,9,467084,343056
2025-02-21 16:07:40.711,136198,66450,43331,11,466830,342944
2025-02-21 16:07:40.715,136505,66597,43483,10,466354,342839
2025-02-21 16:07:40.902,136953,66950,43799,14,466128,342998
2025-02-21 16:07:40.904,137634,67700,44348,10,466495,343771
2025-02-21 16:07:41.053,138246,68537,44919,4,467075,344780
2025-02-21 16:07:41.096,138851,69225,45394,6,467491,345642
2025-02-21 16:07:41.243,139450,70027,45909,6,468220,346740
2025-02-21 16:07:41.289,139827,70817,46420,9,469235,348032
2025-02-21 16:07:41.392,138317,68917,45217,11,467505,346286
2025-02-21 16:07:41.589,138730,68706,45063,9,468249,346917
2025-02-21 16:07:41.592,138925,69177,45389,4,469116,347857
2025-02-21 16:07:41.751,138766,69344,45552,7,470065,348702
2025-02-21 16:07:41.781,139109,70088,46048,6,471406,350065
2025-02-21 16:07:41.940,139570,70739,46481,6,472062,350974
2025-02-21 16:07:41.972,139856,71405,46942,4,472994,352093
2025-02-21 16:07:42.154,140075,72177,47472,5,474561,353657
2025-02-21 16:07:42.172,139223,71585,47104,7,474676,353730
2025-02-21 16:07:42.337,138349,69380,45637,7,473935,352552
2025-02-21 16:07:42.376,138446,69463,45632,8,474831,353355
2025-02-21 16:07:42.487,138318,69548,45713,4,476387,354534
2025-02-21 16:07:42.680,137861,69985,46078,7,478331,356020
2025-02-21 16:07:42.683,137475,70558,46463,8,479624,357303
2025-02-21 16:07:42.906,137874,70868,46596,13,478116,356785
2025-02-21 16:07:42.909,138665,71372,46889,8,477393,356896
2025-02-21 16:07:43.088,139582,71709,47095,8,476491,356828
2025-02-21 16:07:43.091,139214,69396,45513,5,472320,353517
2025-02-21 16:07:43.275,139637,68010,44637,9,470694,351894
2025-02-21 16:07:43.278,139517,68095,44751,11,470181,351530
2025-02-21 16:07:43.477,139316,67968,44675,15,467525,349642
2025-02-21 16:07:43.480,139612,68500,44998,15,466138,349111
2025-02-21 16:07:43.626,140267,69036,45406,6,465390,349045
2025-02-21 16:07:43.652,140853,69567,45806,8,464469,348819
2025-02-21 16:07:43.894,141373,70167,46254,9,464378,349215
2025-02-21 16:07:43.897,141699,70796,46686,11,465029,350091
2025-02-21 16:07:44.083,139900,69190,45538,9,463677,348584
2025-02-21 16:07:44.086,139568,68171,44764,9,463685,348265
2025-02-21 16:07:44.274,139631,68199,44773,5,463457,348181
2025-02-21 16:07:44.276,139719,68253,44842,7,462918,347917
2025-02-21 16:07:44.486,140170,68731,45217,6,462999,348281
2025-02-21 16:07:44.489,140685,69363,45688,8,463116,348728
2025-02-21 16:07:44.670,141153,69888,46096,4,463142,349119
2025-02-21 16:07:44.673,141656,70370,46446,9,463149,349479
2025-02-21 16:07:44.829,142181,70878,46814,6,463461,350076
2025-02-21 16:07:44.832,141308,70256,46349,2,462202,349038
2025-02-21 16:07:45.022,140239,68311,44999,8,460356,346950
2025-02-21 16:07:45.024,140582,68484,45122,15,460453,347161
2025-02-21 16:07:45.175,140390,68406,45124,11,460000,346851
2025-02-21 16:07:45.224,140611,68588,45318,8,460260,347117
2025-02-21 16:07:45.366,141059,69184,45753,7,460916,347888
2025-02-21 16:07:45.580,141412,69692,46142,9,461641,348668
2025-02-21 16:07:45.583,141732,70059,46431,8,461918,349088
2025-02-21 16:07:45.607,141895,70368,46631,6,462145,349486
2025-02-21 16:07:45.764,140097,68379,45224,6,459834,347035
2025-02-21 16:07:45.807,140323,68045,44992,11,459767,346891
2025-02-21 16:07:45.912,140465,68349,45195,6,460026,347254
2025-02-21 16:07:46.100,140335,68287,45213,24,459923,347171
2025-02-21 16:07:46.107,140726,68808,45584,8,460457,347835
2025-02-21 16:07:46.319,141135,69436,46016,13,461153,348666
2025-02-21 16:07:46.321,141497,69926,46373,5,461810,349427
2025-02-21 16:07:46.499,141495,70227,46558,6,462067,349856
2025-02-21 16:07:46.502,139382,67980,44795,6,460053,347479
2025-02-21 16:07:46.651,139237,67480,44331,7,460121,347318
2025-02-21 16:07:46.691,139190,67517,44343,3,459892,347196
2025-02-21 16:07:46.848,139092,67548,44362,8,459831,347145
2025-02-21 16:07:46.883,139410,68055,44745,9,460449,347816
2025-02-21 16:07:47.011,139799,68742,45273,15,461254,348720
2025-02-21 16:07:47.267,140132,69303,45702,8,462054,349624
2025-02-21 16:07:47.270,140559,69834,46129,4,462776,350487
2025-02-21 16:07:47.287,140208,69730,46010,5,462524,350383
2025-02-21 16:07:47.425,138085,67211,43845,9,459714,347196
2025-02-21 16:07:47.618,137877,66809,43449,8,459328,346645
2025-02-21 16:07:47.621,137787,66815,43525,13,459177,346475
2025-02-21 16:07:47.777,137750,66927,43698,13,459234,346448
2025-02-21 16:07:47.780,138158,67403,44148,9,459671,346945
2025-02-21 16:07:48.042,138698,67998,44684,7,460044,347528
2025-02-21 16:07:48.044,139245,68516,45121,8,460154,347922
2025-02-21 16:07:48.062,139889,69047,45563,14,460392,348429
2025-02-21 16:07:48.190,140619,69564,45980,11,460612,348983
2025-02-21 16:07:48.378,139654,68856,45301,8,459189,347735
2025-02-21 16:07:48.380,138153,66820,43498,4,456990,344964
2025-02-21 16:07:48.536,138262,66759,43506,9,456888,344665
2025-02-21 16:07:48.546,138221,66849,43704,11,456752,344353
2025-02-21 16:07:48.740,138370,67138,43994,10,457348,344700
2025-02-21 16:07:48.746,138961,67685,44519,21,457877,345314
2025-02-21 16:07:48.906,139582,68212,44995,12,458093,345827
2025-02-21 16:07:48.947,140206,68687,45414,10,458372,346371
2025-02-21 16:07:49.142,140913,69252,45882,4,459132,347346
2025-02-21 16:07:49.150,141583,69798,46320,5,459805,348282
2025-02-21 16:07:49.296,139830,68527,45129,4,458291,346626
2025-02-21 16:07:49.337,139358,67437,44175,6,457440,345267
2025-02-21 16:07:49.482,139808,67742,44506,8,457408,345365
2025-02-21 16:07:49.530,139613,67698,44555,9,457139,345157
2025-02-21 16:07:49.639,139865,67960,44838,7,457796,345721
2025-02-21 16:07:49.831,140432,68645,45440,10,458902,346871
2025-02-21 16:07:49.834,140822,69153,45890,4,459473,347580
2025-02-21 16:07:49.990,141140,69548,46227,9,459652,348000
2025-02-21 16:07:50.026,141425,70069,46620,4,460312,348781
2025-02-21 16:07:50.183,138984,68337,44871,8,458167,346175
2025-02-21 16:07:50.225,138295,67385,43944,9,457406,344746
2025-02-21 16:07:50.339,138399,67576,44181,7,457450,344708
2025-02-21 16:07:50.530,138087,67500,44161,11,457526,344511
2025-02-21 16:07:50.534,138462,67978,44597,10,458468,345297
2025-02-21 16:07:50.750,138995,68712,45235,11,459687,346509
2025-02-21 16:07:50.752,139460,69261,45707,5,460713,347577
2025-02-21 16:07:50.930,139989,69794,46162,11,461886,348762
2025-02-21 16:07:50.933,140388,70241,46518,5,462557,349584
2025-02-21 16:07:51.093,137468,67966,44233,8,459991,346280
2025-02-21 16:07:51.122,136465,66692,43189,11,458868,344165
2025-02-21 16:07:51.282,136372,66531,43184,7,457475,342652
2025-02-21 16:07:51.321,136396,66458,43209,11,456526,341664
2025-02-21 16:07:51.511,136965,67003,43754,5,457073,342168
2025-02-21 16:07:51.514,137726,67741,44422,20,457930,343174
2025-02-21 16:07:51.695,138310,68439,45017,8,458959,344319
2025-02-21 16:07:51.713,138941,69033,45523,7,459749,345300
2025-02-21 16:07:51.848,139676,69648,46047,5,460496,346308
2025-02-21 16:07:52.033,138626,69180,45455,8,459649,345465
2025-02-21 16:07:52.036,136003,66892,43253,7,456964,341558
2025-02-21 16:07:52.219,136058,66771,43298,6,457027,341096
2025-02-21 16:07:52.223,136001,66795,43392,7,456986,340749
2025-02-21 16:07:52.408,136275,66967,43615,7,457227,340721
2025-02-21 16:07:52.411,137137,67611,44230,2,457745,341368
2025-02-21 16:07:52.618,138011,68294,44845,7,458589,342478
2025-02-21 16:07:52.621,138825,68826,45334,6,459126,343234
2025-02-21 16:07:52.807,139642,69438,45868,4,460058,344354
2025-02-21 16:07:52.809,140516,69980,46368,4,460639,345248
2025-02-21 16:07:52.960,140158,69959,46253,4,460377,345141
2025-02-21 16:07:52.993,137308,67705,44106,6,457191,340836
2025-02-21 16:07:53.233,137717,67679,44201,4,456787,340131
2025-02-21 16:07:53.236,137682,67887,44424,3,456832,340126
2025-02-21 16:07:53.390,137595,67965,44537,12,457108,340157
2025-02-21 16:07:53.394,138232,68661,45129,12,458426,341450
2025-02-21 16:07:53.615,138832,69308,45667,7,459478,342688
2025-02-21 16:07:53.618,139337,69801,46063,10,460174,343566
2025-02-21 16:07:53.771,139750,70492,46589,9,461780,345132
2025-02-21 16:07:53.789,138933,70364,46296,5,462008,345232
2025-02-21 16:07:53.964,136002,67930,44002,8,458610,340646
2025-02-21 16:07:53.980,136269,67894,44115,10,458705,340237
2025-02-21 16:07:54.180,136190,68026,44255,6,458971,340260
2025-02-21 16:07:54.182,136201,68183,44418,17,459559,340498
2025-02-21 16:07:54.362,136931,68890,45055,22,461030,341911
2025-02-21 16:07:54.380,137573,69572,45645,9,462188,343205
2025-02-21 16:07:54.515,138104,70107,46078,3,462960,344183
2025-02-21 16:07:54.704,138717,70711,46554,6,463869,345260
2025-02-21 16:07:54.707,138783,71057,46741,7,464398,345969
2025-02-21 16:07:54.929,134865,68261,43969,5,460109,340491
2025-02-21 16:07:54.931,134306,67470,43444,5,459095,338483
2025-02-21 16:07:54.976,134438,67453,43526,6,459193,338144
2025-02-21 16:07:55.115,134504,67433,43574,3,459222,337818
2025-02-21 16:07:55.271,135386,67991,44146,5,460183,338770
2025-02-21 16:07:55.276,136218,68749,44815,8,461508,340220
2025-02-21 16:07:55.463,136890,69347,45319,5,462562,341400
2025-02-21 16:07:55.467,137639,69892,45790,4,463306,342350
2025-02-21 16:07:55.618,138384,70531,46325,7,464212,343487
2025-02-21 16:07:55.816,136420,69498,45181,8,462445,341401
2025-02-21 16:07:55.819,134150,67471,43415,7,459140,336618
2025-02-21 16:07:56.021,134643,67608,43652,6,459161,336317
2025-02-21 16:07:56.023,134515,67661,43725,10,459439,336354
2025-02-21 16:07:56.065,134856,67872,43951,9,459987,336649
2025-02-21 16:07:56.208,135820,68532,44563,4,461094,337891
2025-02-21 16:07:56.365,136631,69111,45068,10,461916,338948
2025-02-21 16:07:56.368,137132,69645,45517,9,462840,339981
2025-02-21 16:07:56.624,137614,70326,46049,12,464345,341448
2025-02-21 16:07:56.627,134882,68844,44515,6,462156,338451
2025-02-21 16:07:56.655,133561,67635,43522,9,460301,335291
2025-02-21 16:07:56.775,134158,67990,43857,8,460726,335651
2025-02-21 16:07:56.980,133868,67867,43777,8,460634,335355
2025-02-21 16:07:56.982,134448,68281,44167,3,461535,336123
2025-02-21 16:07:57.132,135408,68974,44794,8,462785,337574
2025-02-21 16:07:57.152,136077,69530,45253,23,463626,338651
2025-02-21 16:07:57.315,136459,70010,45649,7,464472,339578
2025-02-21 16:07:57.340,135772,69946,45435,8,464392,339457
2025-02-21 16:07:57.473,131989,67326,43041,6,460514,333651
2025-02-21 16:07:57.732,132102,67093,42905,9,460314,332644
2025-02-21 16:07:57.734,132535,67082,42997,7,460945,332943
2025-02-21 16:07:57.743,133437,66934,43096,9,460262,332456
2025-02-21 16:07:57.884,134658,67539,43776,8,460626,333356
2025-02-21 16:07:58.076,135563,68179,44391,8,461044,334315
2025-02-21 16:07:58.078,136398,68664,44845,9,461302,335047
2025-02-21 16:07:58.236,136710,69099,45168,8,461945,335898
2025-02-21 16:07:58.247,132768,66864,43043,10,458256,330637
2025-02-21 16:07:58.429,131839,66395,42605,8,458219,329319
2025-02-21 16:07:58.439,132002,66514,42716,6,459184,329763
2025-02-21 16:07:58.591,132391,66654,42895,6,459714,330151
2025-02-21 16:07:58.639,133168,67358,43523,16,461305,331775
2025-02-21 16:07:58.788,133889,68109,44132,9,462813,333513
2025-02-21 16:07:58.950,134560,68639,44594,10,463792,334729
2025-02-21 16:07:58.952,135000,68860,44800,12,463827,335092
2025-02-21 16:07:59.140,131318,66443,42630,4,459273,329402
2025-02-21 16:07:59.143,130861,65843,42152,7,458262,327692
2025-02-21 16:07:59.322,131273,66059,42377,11,458988,328262
2025-02-21 16:07:59.334,131556,66400,42686,6,459931,329131
2025-02-21 16:07:59.578,132482,67037,43258,9,461466,330769
2025-02-21 16:07:59.581,133503,67650,43842,6,462567,332277
2025-02-21 16:07:59.728,134301,68250,44370,8,463758,333742
2025-02-21 16:07:59.738,135144,68789,44868,7,464495,334911
2025-02-21 16:07:59.920,135391,69334,45256,21,465615,336242
2025-02-21 16:07:59.938,131804,66645,42937,5,461495,330965
2025-02-21 16:08:00.158,131443,65835,42378,8,460492,329350
2025-02-21 16:08:00.161,131798,65869,42484,8,461054,329929
2025-02-21 16:08:00.345,132170,66100,42744,12,461903,330956
2025-02-21 16:08:00.348,132994,66789,43341,8,463427,332828
2025-02-21 16:08:00.509,133780,67540,43965,7,465186,334934
2025-02-21 16:08:00.530,134514,68102,44480,7,466482,336602
2025-02-21 16:08:00.705,135480,68744,45031,6,467672,338304
2025-02-21 16:08:00.735,136380,69471,45650,11,469143,340228
2025-02-21 16:08:00.859,135405,68617,44970,3,468295,339628
2025-02-21 16:08:01.046,133941,66344,43280,7,465916,336718
2025-02-21 16:08:01.049,134277,66230,43317,7,466197,337008
2025-02-21 16:08:01.257,134578,66158,43381,7,466238,337278
2025-02-21 16:08:01.260,135458,66275,43606,2,466104,337685
2025-02-21 16:08:01.444,136581,66922,44213,3,466860,339007
2025-02-21 16:08:01.447,137582,67397,44677,7,466870,339804
2025-02-21 16:08:01.590,138493,67919,45132,3,467032,340719
2025-02-21 16:08:01.618,140021,68471,45577,8,467778,342081
2025-02-21 16:08:01.861,139076,67497,44999,5,466603,341054
2025-02-21 16:08:01.863,138849,66338,44287,9,465453,339891
2025-02-21 16:08:01.909,139497,66682,44617,8,465583,340356
2025-02-21 16:08:02.019,139695,66667,44719,12,465207,340331
2025-02-21 16:08:02.198,140425,67241,45177,4,466069,341443
2025-02-21 16:08:02.214,141141,67968,45725,4,467386,342918
2025-02-21 16:08:02.356,141634,68410,46075,11,467786,343667
2025-02-21 16:08:02.555,142026,68910,46420,5,468565,344657
2025-02-21 16:08:02.557,140713,67390,45389,9,466981,343060
2025-02-21 16:08:02.704,141006,66960,45119,21,467263,343207
2025-02-21 16:08:02.718,141278,67287,45348,9,467733,343845
2025-02-21 16:08:02.954,141344,67347,45421,8,467855,344121
2025-02-21 16:08:02.957,141858,67886,45800,7,468568,345031
2025-02-21 16:08:03.112,142322,68420,46141,7,468751,345666
2025-02-21 16:08:03.114,142733,68921,46467,12,469154,346399
2025-02-21 16:08:03.299,141901,68359,46004,12,468539,345888
2025-02-21 16:08:03.309,141206,66750,44822,8,467628,344713
2025-02-21 16:08:03.524,141399,66750,44765,4,467804,344957
2025-02-21 16:08:03.527,141436,66822,44809,6,467678,345029
2025-02-21 16:08:03.746,141712,67177,45064,7,467892,345467
2025-02-21 16:08:03.749,142156,67869,45529,8,468466,346344
2025-02-21 16:08:03.939,142432,68429,45899,9,468893,347068
2025-02-21 16:08:03.942,142428,68791,46108,2,469076,347583
2025-02-21 16:08:04.097,140876,66883,44662,5,467197,345606
2025-02-21 16:08:04.104,140784,66276,44128,3,466820,345212
2025-02-21 16:08:04.256,140793,66464,44207,9,466647,345257
2025-02-21 16:08:04.456,140667,66652,44309,12,466286,345174
2025-02-21 16:08:04.459,140893,67343,44772,9,466717,345891
2025-02-21 16:08:04.671,141152,68054,45240,9,467183,346647
2025-02-21 16:08:04.673,141310,68703,45676,5,467793,347483
2025-02-21 16:08:04.708,141463,69322,46080,11,468602,348450
2025-02-21 16:08:04.859,139847,67577,44758,12,466971,346744
2025-02-21 16:08:04.901,139723,66515,43929,5,466126,345910
2025-02-21 16:08:05.021,139909,66515,43901,5,465258,345473
2025-02-21 16:08:05.271,140001,66640,43978,10,464390,345077
2025-02-21 16:08:05.273,140537,67308,44464,7,464733,345722
2025-02-21 16:08:05.304,140968,68143,45060,7,465472,346724
2025-02-21 16:08:05.425,141222,68901,45584,17,466417,347855
2025-02-21 16:08:05.607,141552,69559,46031,17,467223,348864
2025-02-21 16:08:05.610,141950,70202,46471,11,467936,349845
2025-02-21 16:08:05.768,141734,70386,46541,6,467923,350127
2025-02-21 16:08:05.796,140231,68150,44950,7,466054,348115
2025-02-21 16:08:05.960,140356,67933,44761,3,466656,348684
2025-02-21 16:08:05.996,140351,68148,44878,6,466938,349141
2025-02-21 16:08:06.121,140353,68475,45091,8,467625,349882
2025-02-21 16:08:06.367,140673,69234,45585,6,468777,351174
2025-02-21 16:08:06.369,141047,69973,46073,8,469653,352295
2025-02-21 16:08:06.400,141477,70543,46451,7,470141,353096
2025-02-21 16:08:06.521,142024,71023,46774,9,470208,353598
2025-02-21 16:08:06.714,142530,71505,47092,4,470076,353987
2025-02-21 16:08:06.717,142826,72087,47462,8,470562,354726
2025-02-21 16:08:06.885,140970,69991,45941,4,468564,352581
2025-02-21 16:08:06.891,140951,69043,45243,4,468571,352459
2025-02-21 16:08:07.085,141018,69073,45233,4,468525,352618
2025-02-21 16:08:07.096,141050,69117,45276,4,468361,352640
2025-02-21 16:08:07.247,141382,69706,45700,5,469119,353519
2025-02-21 16:08:07.296,141756,70428,46216,7,469980,354545
2025-02-21 16:08:07.446,142081,71049,46652,10,470612,355389
2025-02-21 16:08:07.602,142436,71626,47072,7,471227,356221
2025-02-21 16:08:07.606,142859,72274,47532,4,471938,357154
2025-02-21 16:08:07.800,143258,72932,47979,4,472722,358121
2025-02-21 16:08:07.802,142174,72172,47349,8,471930,357399
2025-02-21 16:08:07.958,140972,69828,45679,11,470409,355435
2025-02-21 16:08:07.992,141154,69761,45668,9,470294,355419
2025-02-21 16:08:08.213,141056,69670,45636,9,469609,354968
2025-02-21 16:08:08.215,141187,69897,45845,16,469940,355310
2025-02-21 16:08:08.373,141579,70608,46363,10,470879,356367
2025-02-21 16:08:08.392,142008,71163,46776,8,471069,356835
2025-02-21 16:08:08.579,142502,71542,47058,6,470706,356919
2025-02-21 16:08:08.583,143086,71919,47332,8,470006,356745
2025-02-21 16:08:08.812,143560,72590,47794,5,470249,357323
2025-02-21 16:08:08.815,141967,71603,46928,7,469129,356111
2025-02-21 16:08:08.994,141183,69903,45629,5,467605,354172
2025-02-21 16:08:08.997,141358,70321,45958,8,468276,354781
2025-02-21 16:08:09.147,141007,70262,45947,10,467741,354270
2025-02-21 16:08:09.188,141169,70514,46144,7,467803,354403
2025-02-21 16:08:09.340,141563,71247,46671,6,468404,355177
2025-02-21 16:08:09.389,141863,72002,47174,6,469414,356280
2025-02-21 16:08:09.506,142125,72551,47558,5,470005,357021
2025-02-21 16:08:09.692,142434,73215,48002,3,470944,358101
2025-02-21 16:08:09.695,140798,72175,47029,4,469961,356853
2025-02-21 16:08:09.913,139611,70595,45725,7,468838,354934
2025-02-21 16:08:09.916,139969,70841,45914,12,468865,354956
2025-02-21 16:08:10.099,139891,70623,45765,10,467560,353888
2025-02-21 16:08:10.102,140262,70662,45859,11,466751,353265
2025-02-21 16:08:10.255,140983,71240,46353,6,466527,353425
2025-02-21 16:08:10.274,141548,71868,46834,13,466543,353805
2025-02-21 16:08:10.525,141962,72390,47232,11,466776,354270
2025-02-21 16:08:10.527,141469,72438,47155,6,466668,354213
2025-02-21 16:08:10.566,139431,70412,45404,7,464284,351052
2025-02-21 16:08:10.679,139779,70431,45461,4,463983,350608
2025-02-21 16:08:10.864,139711,70613,45607,5,463679,350343
2025-02-21 16:08:10.867,139618,70619,45663,14,463550,350080
2025-02-21 16:08:11.019,140149,71244,46189,11,464382,350917
2025-02-21 16:08:11.221,140644,71868,46688,6,465078,351724
2025-02-21 16:08:11.223,140921,72398,47095,5,465692,352464
2025-02-21 16:08:11.377,139119,71121,45906,9,464085,350405
2025-02-21 16:08:11.380,138340,69994,44991,8,462933,348399
2025-02-21 16:08:11.636,138923,70341,45350,6,462877,348335
2025-02-21 16:08:11.638,138720,70148,45245,6,461981,347387
2025-02-21 16:08:11.662,139103,70483,45557,8,462279,347593
2025-02-21 16:08:11.787,139754,71166,46082,7,462941,348433
2025-02-21 16:08:11.979,140167,71833,46563,4,463831,349390
2025-02-21 16:08:11.982,138089,70506,45265,5,462869,347603
2025-02-21 16:08:12.194,136940,68991,43988,5,461411,344883
2025-02-21 16:08:12.197,137511,68991,44085,5,460473,343993
2025-02-21 16:08:12.386,137857,68655,43914,3,458769,342594
2025-02-21 16:08:12.389,138487,69112,44316,7,458933,342951
2025-02-21 16:08:12.541,139218,69880,44916,8,459821,344073
2025-02-21 16:08:12.558,139725,70527,45405,7,460683,345151
2025-02-21 16:08:12.731,138142,69389,44326,9,459312,343432
2025-02-21 16:08:12.762,136736,67677,42906,8,457607,340571
2025-02-21 16:08:12.880,136862,67650,42954,8,457757,340257
2025-02-21 16:08:13.090,136911,67710,43082,10,457997,340306
2025-02-21 16:08:13.093,137395,68107,43458,5,458418,340839
2025-02-21 16:08:13.308,138165,68865,44091,10,459360,342080
2025-02-21 16:08:13.311,138736,69455,44589,4,460157,343142
2025-02-21 16:08:13.354,138871,69744,44794,7,460535,343769
2025-02-21 16:08:13.510,136362,67399,42763,3,458061,340307
2025-02-21 16:08:13.554,136067,66727,42317,28,457502,339042
2025-02-21 16:08:13.672,136317,66847,42534,10,457497,338975
2025-02-21 16:08:13.966,136430,67086,42793,13,457777,339340
2025-02-21 16:08:13.968,137050,67877,43471,4,459066,340793
2025-02-21 16:08:13.971,137630,68691,44137,6,460455,342433
2025-02-21 16:08:14.125,138135,69364,44687,6,461660,343841
2025-02-21 16:08:14.158,138624,70040,45236,6,462801,345191
2025-02-21 16:08:14.319,137437,69375,44542,5,462383,344652
2025-02-21 16:08:14.350,135381,66901,42472,10,459781,340910
2025-02-21 16:08:14.466,135600,66535,42388,5,458919,339806
2025-02-21 16:08:14.654,135753,66710,42668,5,458988,339798
2025-02-21 16:08:14.656,135918,67240,43172,6,460197,340807
2025-02-21 16:08:14.814,136545,68068,43884,8,461491,342258
2025-02-21 16:08:14.853,137000,68840,44527,7,462803,343734
2025-02-21 16:08:15.072,137398,69522,45075,10,464080,345123
2025-02-21 16:08:15.075,137970,70231,45656,12,465179,346437
2025-02-21 16:08:15.252,138496,71032,46267,11,466465,347913
2025-02-21 16:08:15.255,137679,70805,45920,5,466919,348183
2025-02-21 16:08:15.454,134894,67832,43300,12,464164,344041
2025-02-21 16:08:15.456,134766,67326,43051,5,463799,343119
2025-02-21 16:08:15.612,134863,67251,43145,10,463868,342972
2025-02-21 16:08:15.650,135230,67396,43403,6,464117,343133
2025-02-21 16:08:15.818,136029,68145,44112,8,465306,344464
2025-02-21 16:08:15.848,136627,68930,44755,8,466580,345926
2025-02-21 16:08:15.979,137007,69648,45319,12,468000,347432
2025-02-21 16:08:16.181,137562,70374,45878,6,469304,348940
2025-02-21 16:08:16.183,138219,71131,46492,22,470656,350535
2025-02-21 16:08:16.339,138175,71379,46599,9,471404,351460
2025-02-21 16:08:16.344,135052,68127,43616,9,468448,347167
2025-02-21 16:08:16.543,134636,67110,43002,13,468265,346013
2025-02-21 16:08:16.546,134705,66897,43034,5,468356,345711
2025-02-21 16:08:16.718,134958,66820,43141,9,467861,345160
2025-02-21 16:08:16.745,135821,67396,43732,4,468014,345655
2025-02-21 16:08:16.966,136951,68021,44320,8,467688,346064
2025-02-21 16:08:16.969,137615,68753,44909,4,468224,347019
2025-02-21 16:08:17.118,138297,69450,45469,10,469069,348199
2025-02-21 16:08:17.136,139167,70106,46029,7,469604,349212
2025-02-21 16:08:17.375,139826,70611,46426,12,469693,349831
2025-02-21 16:08:17.377,137045,68092,44060,9,466371,345761
2025-02-21 16:08:17.522,136797,66885,43229,8,465029,343492
2025-02-21 16:08:17.540,138205,66620,43310,5,463485,342090
2025-02-21 16:08:17.718,139346,65700,42961,4,458878,338573
2025-02-21 16:08:17.741,140356,65096,42987,16,454129,335952
2025-02-21 16:08:17.881,141354,64669,43071,12,450500,334707
2025-02-21 16:08:18.085,142561,64596,43228,8,449191,334970
2025-02-21 16:08:18.088,143931,65019,43613,6,450930,337515
2025-02-21 16:08:18.251,145223,65440,44140,9,454791,341489
