Timestamp,PPG1,PPG2,PPG3,PPG4,PPG5,PPG6
2025-02-27 19:02:59.253,44045,14632,10735,9,100106,198754
2025-02-27 19:02:59.442,44052,14622,10745,0,100101,198751
2025-02-27 19:02:59.446,44043,14633,10743,4,100096,198719
2025-02-27 19:02:59.448,44047,14636,10745,1,100079,198756
2025-02-27 19:02:59.451,44036,14635,10743,0,100083,198721
2025-02-27 19:02:59.453,44034,14645,10745,0,100059,198712
2025-02-27 19:02:59.456,44035,14640,10745,5,100025,198696
2025-02-27 19:02:59.458,44037,14647,10744,9,100030,198714
2025-02-27 19:02:59.461,44039,14655,10744,3,100003,198683
2025-02-27 19:02:59.463,44057,14659,10760,0,100029,198690
2025-02-27 19:02:59.465,44081,14649,10747,4,100011,198690
2025-02-27 19:02:59.466,44106,14657,10753,5,100007,198662
2025-02-27 19:02:59.468,44112,14650,10754,6,100035,198711
2025-02-27 19:02:59.470,44143,14663,10757,3,100042,198717
2025-02-27 19:02:59.471,44158,14659,10758,0,100082,198778
2025-02-27 19:02:59.473,44173,14666,10769,14,100100,198821
2025-02-27 19:02:59.475,44173,14673,10771,3,100109,198882
2025-02-27 19:02:59.478,44171,14675,10780,7,100115,198869
2025-02-27 19:02:59.480,44179,14673,10771,3,100077,198875
2025-02-27 19:02:59.482,44164,14681,10776,0,100055,198879
2025-02-27 19:02:59.483,44168,14687,10772,5,100023,198835
2025-02-27 19:02:59.486,44162,14683,10776,4,100015,198797
2025-02-27 19:02:59.488,44151,14674,10771,6,99984,198773
2025-02-27 19:02:59.489,44160,14674,10773,6,99960,198747
2025-02-27 19:02:59.919,44152,14662,10779,6,99941,198688
2025-02-27 19:02:59.921,44167,14675,10777,2,99919,198684
2025-02-27 19:02:59.923,44149,14669,10775,0,99887,198674
2025-02-27 19:02:59.925,44168,14668,10780,0,99878,198637
2025-02-27 19:02:59.927,44161,14656,10768,3,99861,198601
2025-02-27 19:02:59.929,44154,14655,10777,5,99831,198576
2025-02-27 19:02:59.930,44187,14656,10779,7,99791,198534
2025-02-27 19:02:59.932,44179,14652,10789,1,99785,198474
2025-02-27 19:02:59.933,44179,14640,10771,11,99730,198458
2025-02-27 19:02:59.935,44198,14650,10774,3,99736,198417
2025-02-27 19:02:59.938,44202,14626,10775,13,99712,198389
2025-02-27 19:02:59.940,44218,14630,10773,1,99688,198389
2025-02-27 19:02:59.941,44233,14631,10774,0,99686,198360
2025-02-27 19:02:59.943,44246,14621,10765,5,99687,198335
2025-02-27 19:02:59.945,44245,14615,10756,0,99663,198303
2025-02-27 19:02:59.947,44264,14616,10769,4,99646,198280
2025-02-27 19:02:59.948,44275,14607,10721,1,99615,198267
2025-02-27 19:02:59.950,44290,14609,10746,0,99605,198239
2025-02-27 19:02:59.952,44297,14588,10727,1,99582,198225
2025-02-27 19:02:59.954,44309,14583,10722,0,99576,198220
2025-02-27 19:02:59.956,44317,14581,10715,17,99574,198194
2025-02-27 19:02:59.958,44321,14576,10720,0,99543,198185
2025-02-27 19:02:59.960,44329,14573,10715,14,99513,198177
2025-02-27 19:02:59.961,44332,14577,10703,4,99492,198150
2025-02-27 19:02:59.963,44339,14572,10706,5,99500,198157
2025-02-27 19:02:59.965,44341,14582,10701,7,99531,198162
2025-02-27 19:02:59.966,44334,14572,10715,0,99526,198199
2025-02-27 19:03:00.053,44373,14576,10711,8,99533,198229
2025-02-27 19:03:00.055,44365,14573,10710,6,99582,198271
2025-02-27 19:03:00.057,44398,14590,10730,1,99613,198306
2025-02-27 19:03:00.059,44405,14590,10723,1,99665,198383
2025-02-27 19:03:00.061,44420,14605,10730,0,99701,198452
2025-02-27 19:03:00.063,44410,14605,10738,1,99755,198572
2025-02-27 19:03:00.065,44428,14608,10752,0,99817,198588
2025-02-27 19:03:00.066,44435,14616,10739,2,99839,198680
2025-02-27 19:03:00.068,44440,14616,10753,0,99885,198762
2025-02-27 19:03:00.070,44435,14619,10754,6,99909,198803
2025-02-27 19:03:00.072,44437,14622,10748,7,99920,198837
2025-02-27 19:03:00.073,44415,14624,10765,1,99938,198876
2025-02-27 19:03:00.075,44404,14633,10774,6,99919,198880
2025-02-27 19:03:00.078,44395,14620,10769,1,99947,198885
2025-02-27 19:03:00.080,44402,14642,10782,6,99943,198885
2025-02-27 19:03:00.083,44405,14643,10781,1,99964,198931
2025-02-27 19:03:00.085,44418,14643,10782,11,99985,198976
2025-02-27 19:03:00.087,44405,14653,10785,1,100032,199012
2025-02-27 19:03:00.088,44429,14663,10790,2,100051,199046
2025-02-27 19:03:00.090,44421,14661,10790,9,100077,199085
2025-02-27 19:03:00.092,44425,14669,10797,0,100132,199179
2025-02-27 19:03:00.094,44416,14672,10802,7,100176,199236
2025-02-27 19:03:00.096,44404,14679,10806,3,100250,199319
2025-02-27 19:03:00.098,44389,14686,10804,3,100324,199417
2025-02-27 19:03:00.099,44389,14686,10804,3,100324,199417
2025-02-27 19:03:00.101,44330,14682,10805,2,100419,199611
2025-02-27 19:03:00.170,44303,14688,10810,4,100470,199687
2025-02-27 19:03:00.171,44268,14674,10809,0,100497,199695
2025-02-27 19:03:00.173,44260,14680,10810,1,100506,199711
2025-02-27 19:03:00.175,44234,14679,10808,0,100516,199762
2025-02-27 19:03:00.177,44202,14669,10804,4,100518,199723
2025-02-27 19:03:00.179,44185,14662,10809,9,100461,199698
2025-02-27 19:03:00.181,44165,14658,10794,12,100419,199598
2025-02-27 19:03:00.182,44150,14647,10797,0,100348,199525
2025-02-27 19:03:00.184,44133,14638,10799,0,100278,199375
2025-02-27 19:03:00.185,44124,14625,10786,3,100209,199254
2025-02-27 19:03:00.187,44120,14620,10772,0,100129,199100
2025-02-27 19:03:00.188,44080,14597,10770,0,100020,198924
2025-02-27 19:03:00.190,44059,14601,10770,1,99938,198776
2025-02-27 19:03:00.192,44032,14579,10759,8,99846,198630
2025-02-27 19:03:00.193,44011,14570,10744,4,99772,198436
2025-02-27 19:03:00.195,44011,14556,10738,5,99704,198336
2025-02-27 19:03:00.196,44006,14563,10724,8,99691,198211
2025-02-27 19:03:00.199,44001,14542,10721,2,99653,198150
2025-02-27 19:03:00.201,44011,14527,10714,2,99635,198100
2025-02-27 19:03:00.203,44030,14535,10706,11,99612,198064
2025-02-27 19:03:00.204,44065,14531,10694,4,99644,198056
2025-02-27 19:03:00.207,44090,14528,10700,0,99673,198071
2025-02-27 19:03:00.209,44107,14528,10705,0,99735,198131
2025-02-27 19:03:00.210,44132,14539,10705,8,99763,198162
2025-02-27 19:03:00.212,44153,14549,10705,2,99795,198270
2025-02-27 19:03:00.213,44164,14560,10709,0,99833,198322
2025-02-27 19:03:00.215,44188,14572,10710,0,99914,198422
2025-02-27 19:03:00.216,44194,14576,10717,5,99938,198488
2025-02-27 19:03:00.218,44202,14575,10719,6,99968,198550
2025-02-27 19:03:00.310,44205,14598,10729,6,99985,198596
2025-02-27 19:03:00.311,44215,14598,10727,5,100049,198633
2025-02-27 19:03:00.313,44231,14606,10732,3,100029,198677
2025-02-27 19:03:00.315,44229,14616,10733,4,100074,198677
2025-02-27 19:03:00.316,44240,14620,10745,0,100051,198720
2025-02-27 19:03:00.318,44239,14628,10752,2,100062,198722
2025-02-27 19:03:00.320,44249,14631,10749,0,100096,198753
2025-02-27 19:03:00.322,44261,14642,10749,9,100096,198787
2025-02-27 19:03:00.324,44270,14652,10763,9,100089,198811
2025-02-27 19:03:00.326,44265,14649,10757,9,100137,198788
2025-02-27 19:03:00.328,44252,14657,10762,15,100099,198810
2025-02-27 19:03:00.330,44261,14660,10763,0,100147,198829
2025-02-27 19:03:00.332,44243,14666,10757,5,100129,198837
2025-02-27 19:03:00.334,44229,14660,10758,4,100137,198816
2025-02-27 19:03:00.335,44212,14656,10765,7,100130,198883
2025-02-27 19:03:00.337,44194,14651,10763,0,100128,198783
2025-02-27 19:03:00.339,44157,14665,10755,0,100081,198821
2025-02-27 19:03:00.341,44134,14649,10760,7,100075,198782
2025-02-27 19:03:00.343,44104,14643,10745,6,100085,198773
2025-02-27 19:03:00.344,44075,14651,10760,3,100042,198714
2025-02-27 19:03:00.346,44031,14648,10741,1,100031,198694
2025-02-27 19:03:00.348,44007,14651,10748,5,100025,198672
2025-02-27 19:03:00.350,44018,14637,10749,1,100001,198625
2025-02-27 19:03:00.351,43982,14634,10741,4,99993,198646
2025-02-27 19:03:00.352,43960,14643,10757,0,100001,198628
2025-02-27 19:03:00.354,43980,14639,10741,0,99979,198607
2025-02-27 19:03:00.355,43974,14655,10755,1,100009,198643
2025-02-27 19:03:00.357,43986,14653,10761,8,100019,198665
2025-02-27 19:03:00.358,44012,14673,10762,0,100064,198703
2025-02-27 19:03:00.424,44013,14647,10776,9,100055,198712
2025-02-27 19:03:00.426,44025,14676,10793,3,100074,198771
2025-02-27 19:03:00.427,44039,14663,10772,7,100090,198782
2025-02-27 19:03:00.429,44052,14674,10782,6,100106,198823
2025-02-27 19:03:00.431,44053,14677,10801,0,100100,198834
2025-02-27 19:03:00.433,44077,14694,10770,0,100120,198852
2025-02-27 19:03:00.435,44079,14671,10800,5,100123,198863
2025-02-27 19:03:00.436,44093,14696,10793,9,100121,198891
2025-02-27 19:03:00.438,44094,14689,10790,0,100135,198892
2025-02-27 19:03:00.440,44083,14698,10793,12,100134,198924
2025-02-27 19:03:00.443,44085,14687,10801,4,100132,198909
2025-02-27 19:03:00.454,44088,14700,10806,8,100116,198902
2025-02-27 19:03:00.462,44073,14695,10804,16,100122,198880
2025-02-27 19:03:00.557,44074,14690,10803,2,100104,198876
2025-02-27 19:03:00.559,44071,14683,10794,0,100096,198871
2025-02-27 19:03:00.561,44070,14694,10792,2,100107,198860
2025-02-27 19:03:00.563,44063,14683,10794,0,100064,198828
2025-02-27 19:03:00.565,44081,14674,10787,2,100092,198787
2025-02-27 19:03:00.566,44083,14673,10773,6,100065,198815
2025-02-27 19:03:00.568,44098,14665,10782,6,100079,198799
2025-02-27 19:03:00.570,44114,14658,10772,3,100092,198799
2025-02-27 19:03:00.571,44128,14653,10772,0,100084,198827
2025-02-27 19:03:00.573,44134,14655,10760,7,100073,198786
2025-02-27 19:03:00.575,44150,14662,10762,2,100099,198832
2025-02-27 19:03:00.586,44145,14663,10758,3,100079,198821
2025-02-27 19:03:00.593,44151,14662,10759,10,100099,198832
2025-02-27 19:03:00.606,44153,14653,10759,6,100105,198832
2025-02-27 19:03:00.675,44157,14657,10754,4,100133,198851
2025-02-27 19:03:00.677,44140,14661,10753,7,100122,198877
2025-02-27 19:03:00.679,44135,14664,10757,1,100148,198878
2025-02-27 19:03:00.681,44114,14662,10747,6,100125,198846
2025-02-27 19:03:00.683,44106,14662,10752,3,100164,198887
2025-02-27 19:03:00.685,44087,14665,10753,3,100164,198900
2025-02-27 19:03:00.687,44069,14673,10753,4,100135,198876
2025-02-27 19:03:00.689,44046,14671,10754,6,100143,198865
2025-02-27 19:03:00.694,44031,14675,10756,0,100156,198878
2025-02-27 19:03:00.706,44011,14672,10755,4,100142,198875
2025-02-27 19:03:00.714,44001,14660,10753,5,100118,198844
2025-02-27 19:03:00.846,43978,14669,10751,6,100108,198853
2025-02-27 19:03:00.848,43977,14663,10761,0,100106,198840
2025-02-27 19:03:00.850,43964,14661,10758,7,100100,198816
2025-02-27 19:03:00.851,43964,14661,10758,7,100100,198816
2025-02-27 19:03:00.853,43955,14656,10755,6,100069,198792
2025-02-27 19:03:00.855,43962,14656,10753,0,100069,198766
2025-02-27 19:03:00.856,43947,14660,10752,2,100061,198773
2025-02-27 19:03:00.859,43954,14658,10758,1,100048,198759
2025-02-27 19:03:00.860,43953,14658,10753,6,100030,198731
2025-02-27 19:03:00.862,43953,14672,10754,6,100037,198709
2025-02-27 19:03:00.863,43958,14668,10751,6,100034,198724
2025-02-27 19:03:00.865,43954,14667,10751,3,100031,198733
2025-02-27 19:03:00.867,43950,14660,10757,3,100014,198696
2025-02-27 19:03:00.868,43971,14666,10758,2,100038,198723
2025-02-27 19:03:00.870,43955,14660,10754,13,100025,198725
2025-02-27 19:03:00.871,43963,14666,10760,4,100022,198727
2025-02-27 19:03:00.873,43957,14670,10761,1,100018,198709
2025-02-27 19:03:00.885,43952,14661,10755,6,100034,198732
2025-02-27 19:03:00.978,43955,14671,10765,0,100024,198731
2025-02-27 19:03:00.981,43958,14670,10774,3,100039,198731
2025-02-27 19:03:00.983,43959,14678,10766,6,100044,198759
2025-02-27 19:03:00.985,43944,14673,10770,9,100039,198722
2025-02-27 19:03:00.987,43937,14681,10769,4,100021,198756
2025-02-27 19:03:00.989,43940,14680,10779,6,100035,198730
2025-02-27 19:03:00.991,43925,14676,10781,7,100028,198728
2025-02-27 19:03:00.993,43924,14680,10780,2,100044,198744
2025-02-27 19:03:00.996,43909,14682,10779,0,100037,198769
2025-02-27 19:03:00.998,43897,14690,10788,0,100062,198743
2025-02-27 19:03:01.000,43906,14680,10781,4,100032,198745
2025-02-27 19:03:01.006,43883,14680,10792,9,100018,198727
2025-02-27 19:03:01.017,43862,14681,10790,5,100006,198722
2025-02-27 19:03:01.026,43857,14685,10787,9,100017,198728
2025-02-27 19:03:01.121,43846,14684,10791,0,100033,198722
2025-02-27 19:03:01.123,43838,14684,10794,6,100039,198714
2025-02-27 19:03:01.125,43818,14682,10784,6,99989,198709
2025-02-27 19:03:01.127,43814,14673,10792,0,99987,198680
2025-02-27 19:03:01.129,43794,14674,10791,0,99977,198674
2025-02-27 19:03:01.131,43788,14675,10788,8,99984,198664
2025-02-27 19:03:01.133,43777,14671,10783,6,99957,198617
2025-02-27 19:03:01.135,43790,14655,10778,10,99968,198609
2025-02-27 19:03:01.136,43803,14650,10770,6,99928,198601
2025-02-27 19:03:01.138,43805,14654,10768,5,99956,198579
2025-02-27 19:03:01.140,43812,14648,10768,7,99946,198604
2025-02-27 19:03:01.146,43833,14647,10756,1,99917,198574
2025-02-27 19:03:01.158,43846,14641,10753,0,99920,198541
2025-02-27 19:03:01.166,43866,14643,10751,5,99934,198555
2025-02-27 19:03:01.236,43850,14637,10750,4,99926,198549
2025-02-27 19:03:01.238,43870,14643,10757,3,99925,198562
2025-02-27 19:03:01.239,43874,14631,10753,7,99932,198555
2025-02-27 19:03:01.241,43885,14638,10749,0,99942,198556
2025-02-27 19:03:01.243,43881,14633,10749,0,99916,198574
2025-02-27 19:03:01.245,43893,14639,10751,2,99964,198602
2025-02-27 19:03:01.247,43860,14642,10755,3,99963,198616
2025-02-27 19:03:01.248,43886,14643,10754,6,99983,198620
2025-02-27 19:03:01.258,43862,14638,10746,5,99963,198632
2025-02-27 19:03:01.269,43846,14651,10769,7,99974,198638
2025-02-27 19:03:01.277,43856,14642,10759,5,99959,198631
2025-02-27 19:03:01.377,43829,14648,10768,2,99975,198620
2025-02-27 19:03:01.379,43811,14648,10759,8,99945,198620
2025-02-27 19:03:01.381,43813,14660,10771,1,99966,198630
2025-02-27 19:03:01.383,43797,14657,10767,0,99938,198632
2025-02-27 19:03:01.384,43795,14641,10759,8,99956,198578
2025-02-27 19:03:01.387,43782,14660,10760,2,99946,198608
2025-02-27 19:03:01.389,43785,14642,10768,9,99942,198600
2025-02-27 19:03:01.391,43770,14655,10754,0,99925,198596
2025-02-27 19:03:01.392,43758,14650,10767,0,99907,198575
2025-02-27 19:03:01.395,43739,14642,10740,5,99911,198559
2025-02-27 19:03:01.396,43748,14651,10766,4,99904,198553
2025-02-27 19:03:01.398,43742,14648,10768,8,99907,198535
2025-02-27 19:03:01.410,43745,14651,10761,7,99895,198515
2025-02-27 19:03:01.417,43731,14638,10760,1,99884,198545
2025-02-27 19:03:01.500,43737,14645,10759,20,99907,198536
2025-02-27 19:03:01.502,43719,14646,10760,0,99891,198502
2025-02-27 19:03:01.503,43727,14650,10762,10,99885,198525
2025-02-27 19:03:01.505,43724,14650,10771,4,99900,198531
2025-02-27 19:03:01.507,43714,14648,10765,0,99881,198529
2025-02-27 19:03:01.509,43706,14641,10771,12,99908,198527
2025-02-27 19:03:01.511,43708,14642,10770,2,99897,198501
2025-02-27 19:03:01.513,43701,14652,10775,10,99891,198525
2025-02-27 19:03:01.515,43690,14653,10775,3,99900,198522
2025-02-27 19:03:01.517,43691,14658,10772,0,99878,198523
2025-02-27 19:03:01.530,43695,14655,10785,0,99891,198529
2025-02-27 19:03:01.537,43672,14655,10780,2,99875,198523
2025-02-27 19:03:01.637,43677,14665,10774,3,99904,198530
2025-02-27 19:03:01.639,43663,14663,10781,3,99892,198516
2025-02-27 19:03:01.641,43667,14670,10786,1,99874,198544
2025-02-27 19:03:01.643,43647,14660,10784,0,99868,198510
2025-02-27 19:03:01.645,43638,14670,10800,3,99900,198513
2025-02-27 19:03:01.647,43622,14660,10790,3,99872,198520
2025-02-27 19:03:01.649,43624,14661,10803,4,99869,198501
2025-02-27 19:03:01.650,43604,14664,10790,0,99835,198488
2025-02-27 19:03:01.652,43600,14668,10792,1,99841,198466
2025-02-27 19:03:01.653,43584,14660,10782,0,99833,198469
2025-02-27 19:03:01.655,43585,14654,10792,3,99827,198446
2025-02-27 19:03:01.661,43577,14655,10782,1,99808,198421
2025-02-27 19:03:01.670,43574,14654,10786,0,99800,198398
2025-02-27 19:03:01.681,43569,14650,10785,8,99769,198373
2025-02-27 19:03:01.749,43571,14644,10781,1,99761,198338
2025-02-27 19:03:01.751,43589,14636,10771,2,99778,198325
2025-02-27 19:03:01.752,43609,14634,10764,1,99770,198312
2025-02-27 19:03:01.754,43616,14632,10758,3,99737,198320
2025-02-27 19:03:01.756,43645,14627,10759,2,99749,198285
2025-02-27 19:03:01.758,43662,14621,10743,2,99756,198313
2025-02-27 19:03:01.760,43681,14624,10756,11,99763,198285
2025-02-27 19:03:01.762,43688,14620,10737,3,99783,198335
2025-02-27 19:03:01.769,43710,14617,10747,4,99754,198299
2025-02-27 19:03:01.781,43709,14619,10746,4,99762,198302
2025-02-27 19:03:01.789,43715,14620,10755,1,99769,198339
2025-02-27 19:03:01.884,43711,14621,10738,3,99794,198340
2025-02-27 19:03:01.886,43719,14623,10752,4,99788,198364
2025-02-27 19:03:01.888,43715,14627,10747,8,99787,198377
2025-02-27 19:03:01.890,43735,14634,10742,4,99806,198381
2025-02-27 19:03:01.892,43726,14632,10751,4,99804,198400
2025-02-27 19:03:01.893,43727,14637,10755,5,99812,198397
2025-02-27 19:03:01.895,43717,14634,10749,0,99837,198427
2025-02-27 19:03:01.898,43709,14644,10755,4,99832,198417
2025-02-27 19:03:01.899,43690,14636,10756,0,99816,198396
2025-02-27 19:03:01.901,43692,14651,10753,9,99813,198398
2025-02-27 19:03:01.902,43674,14644,10769,3,99827,198433
2025-02-27 19:03:01.910,43676,14648,10761,2,99837,198414
2025-02-27 19:03:01.922,43659,14642,10759,1,99807,198408
2025-02-27 19:03:01.930,43671,14650,10760,5,99828,198390
2025-02-27 19:03:02.000,43651,14648,10750,8,99832,198430
2025-02-27 19:03:02.002,43650,14648,10760,3,99820,198418
2025-02-27 19:03:02.004,43638,14653,10762,2,99798,198425
2025-02-27 19:03:02.005,43649,14657,10761,6,99805,198403
2025-02-27 19:03:02.007,43637,14658,10767,8,99817,198412
2025-02-27 19:03:02.009,43641,14668,10772,0,99830,198417
2025-02-27 19:03:02.011,43629,14660,10758,5,99812,198425
2025-02-27 19:03:02.013,43629,14664,10774,2,99803,198410
2025-02-27 19:03:02.022,43643,14665,10765,0,99849,198405
2025-02-27 19:03:02.033,43649,14676,10764,2,99831,198445
2025-02-27 19:03:02.042,43644,14667,10775,6,99846,198464
2025-02-27 19:03:02.146,43660,14680,10777,9,99866,198516
2025-02-27 19:03:02.148,43657,14676,10774,3,99887,198508
2025-02-27 19:03:02.150,43676,14682,10784,9,99911,198554
2025-02-27 19:03:02.152,43676,14689,10792,0,99891,198582
2025-02-27 19:03:02.153,43678,14687,10788,1,99919,198566
2025-02-27 19:03:02.155,43686,14698,10792,4,99928,198603
2025-02-27 19:03:02.156,43693,14708,10798,4,99931,198634
2025-02-27 19:03:02.158,43687,14713,10805,3,99936,198639
2025-02-27 19:03:02.160,43705,14725,10807,11,99937,198657
2025-02-27 19:03:02.162,43702,14723,10804,0,99943,198654
2025-02-27 19:03:02.164,43701,14734,10818,5,99955,198657
2025-02-27 19:03:02.165,43697,14730,10823,1,99987,198703
2025-02-27 19:03:02.174,43702,14723,10821,0,99982,198729
2025-02-27 19:03:02.181,43715,14740,10825,6,99990,198757
2025-02-27 19:03:02.193,43715,14751,10832,0,100032,198753
2025-02-27 19:03:02.202,43706,14743,10828,0,100031,198807
2025-02-27 19:03:02.214,43723,14751,10832,0,100043,198830
2025-02-27 19:03:02.222,43718,14766,10842,0,100055,198850
2025-02-27 19:03:02.234,43716,14763,10850,10,100058,198875
2025-02-27 19:03:02.242,43713,14759,10846,0,100066,198889
2025-02-27 19:03:02.253,43707,14768,10840,4,100057,198894
2025-02-27 19:03:02.262,43713,14753,10847,0,100057,198847
2025-02-27 19:03:02.273,43722,14768,10838,9,100047,198836
2025-02-27 19:03:02.283,43728,14766,10826,8,100042,198821
2025-02-27 19:03:02.294,43764,14764,10829,0,100045,198826
2025-02-27 19:03:02.303,43786,14769,10824,3,100044,198809
2025-02-27 19:03:02.317,43832,14760,10822,8,100094,198820
2025-02-27 19:03:02.323,43824,14768,10811,4,100087,198875
2025-02-27 19:03:02.600,43853,14756,10819,2,100121,198893
2025-02-27 19:03:02.602,43861,14770,10808,5,100126,198946
2025-02-27 19:03:02.604,43860,14764,10814,4,100148,198991
2025-02-27 19:03:02.606,43857,14770,10817,0,100175,198999
2025-02-27 19:03:02.608,43838,14761,10811,4,100183,199018
2025-02-27 19:03:02.610,43817,14760,10803,16,100165,199030
2025-02-27 19:03:02.612,43801,14774,10811,6,100186,199061
2025-02-27 19:03:02.613,43782,14772,10809,0,100187,199060
2025-02-27 19:03:02.616,43774,14779,10811,9,100197,199091
2025-02-27 19:03:02.618,43769,14782,10819,2,100191,199098
2025-02-27 19:03:02.620,43772,14790,10789,7,100235,199150
2025-02-27 19:03:02.622,43784,14792,10814,1,100246,199195
2025-02-27 19:03:02.624,43806,14798,10803,10,100304,199227
2025-02-27 19:03:02.626,43837,14803,10810,0,100337,199301
2025-02-27 19:03:02.627,43847,14806,10815,25,100399,199377
2025-02-27 19:03:02.629,43876,14813,10820,0,100434,199462
2025-02-27 19:03:02.631,43891,14822,10824,0,100509,199567
2025-02-27 19:03:02.633,43912,14833,10833,11,100554,199659
2025-02-27 19:03:02.635,43924,14848,10834,0,100593,199722
2025-02-27 19:03:02.639,43926,14843,10838,3,100612,199791
2025-02-27 19:03:02.641,43940,14856,10847,3,100652,199828
2025-02-27 19:03:02.643,43930,14855,10848,2,100651,199865
2025-02-27 19:03:02.645,43915,14861,10846,0,100679,199908
2025-02-27 19:03:02.647,43915,14861,10846,0,100679,199908
2025-02-27 19:03:02.808,43915,14876,10857,11,100667,199907
2025-02-27 19:03:02.810,43903,14875,10859,1,100682,199914
2025-02-27 19:03:02.812,43889,14878,10857,4,100669,199918
2025-02-27 19:03:02.814,43881,14886,10857,8,100669,199911
2025-02-27 19:03:02.817,43864,14886,10858,1,100673,199922
2025-02-27 19:03:02.820,43858,14885,10863,2,100651,199887
2025-02-27 19:03:02.822,43828,14878,10860,7,100657,199886
2025-02-27 19:03:02.824,43819,14885,10866,4,100652,199884
2025-02-27 19:03:02.832,43781,14890,10865,3,100641,199881
2025-02-27 19:03:02.839,43776,14889,10868,0,100631,199863
2025-02-27 19:03:02.844,43744,14883,10861,0,100633,199837
2025-02-27 19:03:02.847,43732,14880,10868,12,100638,199858
2025-02-27 19:03:02.851,43712,14886,10876,5,100642,199874
2025-02-27 19:03:02.855,43712,14895,10883,7,100652,199878
2025-02-27 19:03:03.093,43691,14891,10866,3,100666,199874
2025-02-27 19:03:03.096,43696,14892,10878,0,100661,199889
2025-02-27 19:03:03.098,43691,14896,10874,8,100670,199859
2025-02-27 19:03:03.100,43692,14905,10881,6,100705,199932
2025-02-27 19:03:03.101,43688,14902,10887,6,100708,199917
2025-02-27 19:03:03.104,43698,14906,10876,6,100702,199952
2025-02-27 19:03:03.106,43698,14906,10876,6,100702,199952
2025-02-27 19:03:03.107,43728,14919,10891,2,100748,199983
2025-02-27 19:03:03.110,43736,14916,10896,13,100780,200038
2025-02-27 19:03:03.112,43759,14937,10896,0,100804,200095
2025-02-27 19:03:03.114,43775,14934,10901,6,100813,200096
2025-02-27 19:03:03.116,43786,14940,10907,4,100798,200143
2025-02-27 19:03:03.120,43807,14941,10898,12,100815,200136
2025-02-27 19:03:03.123,43815,14952,10909,0,100816,200165
2025-02-27 19:03:03.126,43818,14949,10904,1,100834,200153
2025-02-27 19:03:03.128,43831,14964,10908,3,100831,200192
2025-02-27 19:03:03.131,43825,14951,10906,7,100833,200198
2025-02-27 19:03:03.133,43844,14960,10896,5,100857,200214
2025-02-27 19:03:03.269,43847,14957,10890,2,100858,200228
2025-02-27 19:03:03.271,43858,14965,10892,10,100884,200237
2025-02-27 19:03:03.272,43854,14966,10884,5,100909,200285
2025-02-27 19:03:03.275,43849,14964,10890,2,100908,200282
2025-02-27 19:03:03.277,43849,14957,10886,0,100902,200282
2025-02-27 19:03:03.278,43833,14961,10878,2,100891,200299
2025-02-27 19:03:03.280,43813,14955,10870,4,100891,200262
2025-02-27 19:03:03.281,43788,14952,10869,0,100845,200256
2025-02-27 19:03:03.283,43763,14951,10861,0,100842,200193
2025-02-27 19:03:03.284,43741,14952,10868,0,100802,200180
2025-02-27 19:03:03.286,43717,14951,10850,4,100792,200137
2025-02-27 19:03:03.287,43689,14952,10855,0,100776,200117
2025-02-27 19:03:03.289,43678,14956,10855,7,100739,200108
2025-02-27 19:03:03.290,43662,14941,10854,2,100727,200087
2025-02-27 19:03:03.292,43660,14943,10862,3,100737,200072
2025-02-27 19:03:03.294,43668,14948,10851,11,100738,200080
2025-02-27 19:03:03.297,43670,14938,10856,3,100750,200056
2025-02-27 19:03:03.299,43682,14943,10855,3,100774,200083
2025-02-27 19:03:03.301,43691,14944,10863,8,100785,200095
2025-02-27 19:03:03.302,43713,14949,10863,7,100817,200157
2025-02-27 19:03:03.304,43723,14956,10867,2,100814,200171
2025-02-27 19:03:03.306,43755,14964,10871,0,100854,200224
2025-02-27 19:03:03.308,43767,14977,10867,2,100851,200231
2025-02-27 19:03:03.310,43783,14975,10873,3,100881,200275
2025-02-27 19:03:03.312,43800,14973,10876,4,100885,200302
2025-02-27 19:03:03.313,43818,14990,10883,9,100902,200302
2025-02-27 19:03:03.454,43829,14992,10883,5,100915,200343
2025-02-27 19:03:03.455,43857,14998,10893,11,100940,200419
2025-02-27 19:03:03.457,43868,15003,10893,3,100968,200445
2025-02-27 19:03:03.459,43892,15014,10892,6,101011,200498
2025-02-27 19:03:03.461,43884,15016,10901,2,100995,200518
2025-02-27 19:03:03.463,43905,15029,10898,4,101067,200575
2025-02-27 19:03:03.465,43894,15030,10905,8,101086,200660
2025-02-27 19:03:03.467,43908,15046,10911,5,101106,200682
2025-02-27 19:03:03.469,43914,15042,10912,0,101143,200737
2025-02-27 19:03:03.470,43931,15048,10926,6,101211,200813
2025-02-27 19:03:03.471,43957,15067,10925,2,101235,200862
2025-02-27 19:03:03.473,43990,15072,10929,0,101274,200935
2025-02-27 19:03:03.476,44004,15075,10935,0,101309,200997
2025-02-27 19:03:03.477,44000,15093,10942,9,101297,201049
2025-02-27 19:03:03.480,44025,15099,10933,5,101290,201039
2025-02-27 19:03:03.482,43976,15104,10944,1,101295,201029
2025-02-27 19:03:03.483,43999,15104,10934,8,101292,201045
2025-02-27 19:03:03.485,43978,15110,10945,6,101274,201052
2025-02-27 19:03:03.488,43971,15115,10938,4,101301,201078
2025-02-27 19:03:03.490,43940,15138,10948,0,101302,201092
2025-02-27 19:03:03.493,43921,15096,10942,10,101276,201094
2025-02-27 19:03:03.494,43914,15123,10946,3,101289,201075
2025-02-27 19:03:03.496,43893,15116,10952,8,101298,201079
2025-02-27 19:03:03.498,43884,15110,10929,0,101284,201071
2025-02-27 19:03:03.500,43855,15106,10941,4,101264,201053
2025-02-27 19:03:03.502,43854,15106,10939,7,101267,201029
2025-02-27 19:03:03.627,43848,15100,10931,9,101288,201034
2025-02-27 19:03:03.628,43872,15107,10954,2,101302,201047
2025-02-27 19:03:03.630,43885,15111,10941,8,101311,201066
2025-02-27 19:03:03.632,43919,15121,10946,5,101328,201092
2025-02-27 19:03:03.633,43939,15119,10946,3,101346,201151
2025-02-27 19:03:03.635,43980,15125,10950,0,101380,201174
2025-02-27 19:03:03.637,44007,15124,10950,10,101422,201233
2025-02-27 19:03:03.639,44049,15138,10954,0,101444,201259
2025-02-27 19:03:03.640,44086,15144,10955,0,101462,201326
2025-02-27 19:03:03.642,44139,15156,10959,2,101521,201359
2025-02-27 19:03:03.644,44187,15162,10960,0,101526,201435
2025-02-27 19:03:03.645,44240,15170,10967,1,101602,201502
2025-02-27 19:03:03.646,44278,15170,10969,7,101656,201598
2025-02-27 19:03:03.648,44310,15175,10961,8,101698,201650
2025-02-27 19:03:03.650,44329,15194,10964,4,101702,201698
2025-02-27 19:03:03.651,44342,15195,10975,3,101734,201803
2025-02-27 19:03:03.653,44342,15202,10972,4,101781,201835
2025-02-27 19:03:03.654,44347,15224,10973,1,101826,201900
2025-02-27 19:03:03.656,44346,15224,10968,4,101838,201932
2025-02-27 19:03:03.659,44339,15232,10979,11,101852,201980
2025-02-27 19:03:03.661,44320,15227,10973,4,101861,202037
2025-02-27 19:03:03.663,44318,15236,10984,5,101871,202048
2025-02-27 19:03:03.664,44311,15237,10980,3,101884,202068
2025-02-27 19:03:03.666,44290,15245,10982,3,101929,202098
2025-02-27 19:03:03.668,44262,15244,10981,0,101936,202142
2025-02-27 19:03:03.670,44260,15245,10991,8,101918,202159
2025-02-27 19:03:03.671,44248,15257,10985,0,101931,202147
2025-02-27 19:03:03.673,44249,15255,10999,1,101958,202173
2025-02-27 19:03:03.822,44250,15268,10993,7,101967,202198
2025-02-27 19:03:03.824,44243,15272,10989,4,102009,202252
2025-02-27 19:03:03.826,44252,15279,10998,2,102020,202285
2025-02-27 19:03:03.828,44259,15283,10998,1,102024,202312
2025-02-27 19:03:03.830,44271,15294,10997,5,102057,202337
2025-02-27 19:03:03.831,44295,15298,11006,2,102066,202386
2025-02-27 19:03:03.833,44286,15302,11009,3,102080,202395
2025-02-27 19:03:03.835,44300,15304,11019,2,102117,202430
2025-02-27 19:03:03.836,44307,15319,11014,5,102118,202444
2025-02-27 19:03:03.838,44307,15319,11014,5,102118,202444
2025-02-27 19:03:03.839,44318,15327,11016,1,102135,202503
2025-02-27 19:03:03.841,44313,15328,11024,2,102163,202549
2025-02-27 19:03:03.842,44314,15339,11023,3,102146,202576
2025-02-27 19:03:03.844,44315,15343,11034,0,102182,202556
2025-02-27 19:03:03.846,44306,15341,11027,0,102181,202564
2025-02-27 19:03:03.847,44291,15352,11033,7,102198,202586
2025-02-27 19:03:03.849,44278,15345,11031,2,102177,202573
2025-02-27 19:03:03.850,44255,15353,11034,2,102172,202596
2025-02-27 19:03:03.853,44232,15353,11031,1,102137,202554
2025-02-27 19:03:03.862,44214,15358,11033,0,102130,202521
2025-02-27 19:03:04.000,44184,15354,11043,3,102096,202530
2025-02-27 19:03:04.003,44170,15346,11042,5,102077,202478
2025-02-27 19:03:04.005,44159,15349,11028,3,102051,202437
2025-02-27 19:03:04.006,44139,15340,11030,7,102022,202373
2025-02-27 19:03:04.008,44125,15337,11028,6,101933,202305
2025-02-27 19:03:04.010,44119,15339,11027,5,101903,202239
2025-02-27 19:03:04.012,44115,15328,11020,1,101896,202176
2025-02-27 19:03:04.014,44147,15335,11027,6,101871,202164
2025-02-27 19:03:04.015,44154,15325,11035,9,101856,202103
2025-02-27 19:03:04.017,44201,15342,11042,4,101896,202097
2025-02-27 19:03:04.018,44245,15339,11038,7,101917,202155
2025-02-27 19:03:04.020,44285,15339,11050,3,101949,202130
2025-02-27 19:03:04.022,44308,15341,11056,3,101934,202170
2025-02-27 19:03:04.024,44347,15355,11063,0,101974,202153
2025-02-27 19:03:04.026,44337,15367,11072,1,101978,202234
2025-02-27 19:03:04.029,44331,15371,11071,5,101999,202237
2025-02-27 19:03:04.034,44286,15370,11075,3,101965,202279
2025-02-27 19:03:04.046,44261,15373,11072,11,101943,202204
2025-02-27 19:03:04.199,44199,15366,11078,0,101897,202184
2025-02-27 19:03:04.201,44163,15361,11079,1,101831,202085
2025-02-27 19:03:04.203,44086,15349,11073,0,101775,201986
2025-02-27 19:03:04.204,44044,15344,11068,6,101698,201836
2025-02-27 19:03:04.206,43994,15328,11055,4,101665,201755
2025-02-27 19:03:04.207,43933,15327,11055,7,101591,201651
2025-02-27 19:03:04.209,43872,15313,11043,1,101532,201585
2025-02-27 19:03:04.211,43857,15304,11030,3,101495,201446
2025-02-27 19:03:04.212,43797,15286,11021,4,101449,201408
2025-02-27 19:03:04.214,43796,15286,11012,10,101433,201317
2025-02-27 19:03:04.215,43763,15282,11007,3,101414,201304
2025-02-27 19:03:04.217,43773,15276,11007,7,101416,201302
2025-02-27 19:03:04.219,43782,15268,10999,8,101436,201334
2025-02-27 19:03:04.220,43812,15267,10987,4,101452,201357
2025-02-27 19:03:04.221,43833,15265,10996,0,101479,201397
2025-02-27 19:03:04.223,43857,15273,11000,4,101469,201429
2025-02-27 19:03:04.226,43891,15256,10983,4,101506,201454
2025-02-27 19:03:04.228,43921,15282,10991,0,101525,201496
2025-02-27 19:03:04.233,43958,15271,10996,8,101537,201566
2025-02-27 19:03:04.245,43991,15283,11002,5,101579,201577
2025-02-27 19:03:04.382,44009,15268,11002,2,101568,201624
2025-02-27 19:03:04.385,44034,15283,11002,2,101567,201650
2025-02-27 19:03:04.387,44057,15271,11001,0,101577,201629
2025-02-27 19:03:04.389,44091,15278,11000,6,101594,201646
2025-02-27 19:03:04.392,44096,15280,11004,6,101578,201658
2025-02-27 19:03:04.395,44125,15272,10992,5,101591,201636
2025-02-27 19:03:04.397,44140,15276,11013,4,101600,201677
2025-02-27 19:03:04.400,44198,15261,11007,15,101643,201662
2025-02-27 19:03:04.402,44213,15283,11007,7,101655,201692
2025-02-27 19:03:04.405,44227,15282,11019,9,101647,201695
2025-02-27 19:03:04.408,44220,15281,11013,0,101656,201711
2025-02-27 19:03:04.410,44210,15285,11011,0,101641,201676
2025-02-27 19:03:04.412,44197,15269,11016,16,101607,201660
2025-02-27 19:03:04.415,44198,15280,11029,0,101597,201634
2025-02-27 19:03:04.418,44166,15270,11010,11,101581,201626
2025-02-27 19:03:04.422,44158,15276,11015,1,101575,201611
2025-02-27 19:03:04.426,44107,15269,11021,3,101557,201581
2025-02-27 19:03:04.430,44086,15263,11014,0,101536,201548
2025-02-27 19:03:04.609,44051,15272,11015,5,101514,201523
2025-02-27 19:03:04.611,44026,15272,11006,7,101491,201490
2025-02-27 19:03:04.613,43994,15271,11003,0,101516,201468
2025-02-27 19:03:04.615,43999,15283,11010,5,101529,201486
2025-02-27 19:03:04.617,44000,15283,11014,0,101580,201527
2025-02-27 19:03:04.618,44040,15292,11034,1,101639,201604
2025-02-27 19:03:04.620,44062,15295,11036,3,101695,201674
2025-02-27 19:03:04.622,44114,15309,11042,4,101724,201755
2025-02-27 19:03:04.623,44143,15321,11054,6,101789,201864
2025-02-27 19:03:04.624,44173,15330,11060,6,101820,201887
2025-02-27 19:03:04.626,44190,15336,11064,5,101838,201973
2025-02-27 19:03:04.627,44212,15352,11067,3,101852,201992
2025-02-27 19:03:04.629,44210,15360,11074,2,101869,202030
2025-02-27 19:03:04.631,44198,15365,11078,10,101876,202075
2025-02-27 19:03:04.632,44179,15369,11084,7,101862,202041
2025-02-27 19:03:04.634,44155,15375,11079,2,101861,202049
2025-02-27 19:03:04.635,44114,15369,11078,0,101823,202015
2025-02-27 19:03:04.637,44077,15371,11068,1,101795,202023
2025-02-27 19:03:04.639,44024,15360,11068,2,101752,201942
2025-02-27 19:03:04.641,43978,15344,11067,0,101698,201884
2025-02-27 19:03:04.644,43926,15336,11062,1,101653,201798
2025-02-27 19:03:04.645,43894,15326,11059,4,101640,201714
2025-02-27 19:03:04.658,43856,15316,11049,3,101642,201709
2025-02-27 19:03:04.783,43832,15302,11055,6,101630,201676
2025-02-27 19:03:04.785,43813,15300,11046,0,101616,201683
2025-02-27 19:03:04.786,43794,15289,11034,5,101593,201619
2025-02-27 19:03:04.788,43765,15281,11040,7,101596,201548
2025-02-27 19:03:04.790,43764,15269,11035,0,101575,201540
2025-02-27 19:03:04.791,43738,15267,11032,5,101543,201489
2025-02-27 19:03:04.793,43694,15261,11035,8,101548,201426
2025-02-27 19:03:04.795,43659,15266,11024,6,101531,201402
2025-02-27 19:03:04.797,43634,15257,11023,3,101523,201386
2025-02-27 19:03:04.798,43630,15248,11018,2,101475,201373
2025-02-27 19:03:04.799,43609,15244,11017,8,101454,201328
2025-02-27 19:03:04.801,43609,15244,11017,8,101454,201328
2025-02-27 19:03:04.802,43627,15239,11015,0,101472,201294
2025-02-27 19:03:04.804,43635,15239,11013,5,101456,201291
2025-02-27 19:03:04.805,43651,15239,11002,0,101493,201289
2025-02-27 19:03:04.809,43669,15248,11006,5,101484,201289
2025-02-27 19:03:04.817,43673,15245,11012,0,101495,201324
2025-02-27 19:03:04.829,43667,15243,11007,4,101479,201356
2025-02-27 19:03:04.983,43690,15246,11002,13,101479,201331
2025-02-27 19:03:04.985,43684,15237,11000,2,101488,201334
2025-02-27 19:03:04.986,43685,15239,10997,3,101479,201345
2025-02-27 19:03:04.988,43673,15232,10996,5,101471,201335
2025-02-27 19:03:04.990,43649,15239,11001,8,101455,201330
2025-02-27 19:03:04.992,43646,15233,11004,3,101431,201304
2025-02-27 19:03:04.993,43621,15229,11004,0,101426,201287
2025-02-27 19:03:04.995,43617,15230,10995,3,101421,201273
2025-02-27 19:03:04.997,43613,15224,11002,5,101431,201264
2025-02-27 19:03:04.999,43611,15235,11006,0,101452,201283
2025-02-27 19:03:05.000,43630,15228,11014,0,101478,201286
2025-02-27 19:03:05.002,43649,15226,11010,9,101466,201324
2025-02-27 19:03:05.004,43689,15230,11006,6,101523,201321
2025-02-27 19:03:05.005,43751,15235,11009,3,101554,201403
2025-02-27 19:03:05.007,43814,15236,11026,0,101633,201453
2025-02-27 19:03:05.008,43865,15254,11020,5,101694,201575
2025-02-27 19:03:05.010,43905,15259,11033,4,101745,201658
2025-02-27 19:03:05.011,43953,15270,11046,0,101804,201754
2025-02-27 19:03:05.018,43952,15279,11037,7,101849,201833
2025-02-27 19:03:05.029,43984,15282,11045,3,101853,201927
2025-02-27 19:03:05.159,43945,15309,11046,0,101890,201988
2025-02-27 19:03:05.161,43908,15301,11049,7,101857,202013
2025-02-27 19:03:05.163,43882,15310,11046,0,101829,202007
2025-02-27 19:03:05.165,43827,15304,11046,4,101792,201947
2025-02-27 19:03:05.167,43791,15302,11040,6,101748,201941
2025-02-27 19:03:05.169,43732,15299,11039,1,101713,201879
2025-02-27 19:03:05.170,43697,15299,11035,1,101661,201801
2025-02-27 19:03:05.172,43648,15296,11024,2,101615,201739
2025-02-27 19:03:05.174,43619,15285,11032,5,101595,201679
2025-02-27 19:03:05.176,43592,15282,11020,6,101536,201636
2025-02-27 19:03:05.178,43563,15280,11030,0,101505,201549
2025-02-27 19:03:05.180,43566,15280,11033,8,101511,201536
2025-02-27 19:03:05.181,43573,15277,11031,0,101529,201533
2025-02-27 19:03:05.183,43617,15292,11032,0,101519,201532
2025-02-27 19:03:05.185,43627,15289,11025,4,101547,201549
2025-02-27 19:03:05.189,43638,15281,11042,5,101562,201601
2025-02-27 19:03:05.202,43686,15289,11043,6,101599,201632
2025-02-27 19:03:05.347,43684,15301,11055,1,101602,201667
2025-02-27 19:03:05.349,43701,15309,11045,0,101610,201711
2025-02-27 19:03:05.351,43709,15316,11054,0,101616,201724
2025-02-27 19:03:05.353,43696,15302,11049,8,101626,201753
2025-02-27 19:03:05.354,43700,15342,11055,5,101622,201766
2025-02-27 19:03:05.356,43694,15315,11057,14,101608,201762
2025-02-27 19:03:05.358,43672,15332,11058,0,101579,201740
2025-02-27 19:03:05.360,43649,15332,11065,0,101562,201735
2025-02-27 19:03:05.361,43615,15332,11054,0,101520,201675
2025-02-27 19:03:05.363,43596,15325,11039,1,101482,201580
2025-02-27 19:03:05.364,43571,15333,11059,8,101402,201539
2025-02-27 19:03:05.365,43537,15316,11031,4,101338,201421
2025-02-27 19:03:05.367,43503,15313,11029,7,101247,201331
2025-02-27 19:03:05.368,43471,15293,11014,0,101172,201211
2025-02-27 19:03:05.370,43451,15279,11001,0,101103,201079
2025-02-27 19:03:05.372,43406,15253,10988,17,101041,201007
2025-02-27 19:03:05.373,43391,15250,10981,0,100994,200924
2025-02-27 19:03:05.381,43370,15243,10978,8,100962,200862
2025-02-27 19:03:05.394,43378,15225,10968,3,100951,200813
2025-02-27 19:03:05.516,43381,15221,10969,3,100932,200773
2025-02-27 19:03:05.518,43416,15216,10977,4,100956,200767
2025-02-27 19:03:05.520,43466,15210,10976,6,100948,200777
2025-02-27 19:03:05.522,43542,15219,10977,8,101012,200849
2025-02-27 19:03:05.524,43612,15218,10982,9,101035,200870
2025-02-27 19:03:05.526,43698,15222,10984,4,101070,200946
2025-02-27 19:03:05.528,43758,15221,10991,10,101099,201001
2025-02-27 19:03:05.530,43811,15226,10997,6,101147,201079
2025-02-27 19:03:05.532,43857,15232,10997,3,101153,201110
2025-02-27 19:03:05.534,43894,15236,10995,5,101157,201155
2025-02-27 19:03:05.535,43905,15241,11007,10,101199,201168
2025-02-27 19:03:05.537,43920,15247,11016,11,101176,201166
2025-02-27 19:03:05.539,43913,15249,11012,4,101173,201191
2025-02-27 19:03:05.540,43912,15248,11010,3,101172,201152
2025-02-27 19:03:05.542,43898,15249,11012,8,101130,201184
2025-02-27 19:03:05.554,43879,15252,11020,7,101150,201147
2025-02-27 19:03:05.562,43858,15245,11021,5,101105,201110
2025-02-27 19:03:05.714,43844,15246,11022,4,101085,201067
2025-02-27 19:03:05.716,43819,15236,11018,4,101074,201023
2025-02-27 19:03:05.718,43806,15248,11024,9,101051,200994
2025-02-27 19:03:05.719,43792,15245,11019,0,101056,201008
2025-02-27 19:03:05.721,43774,15247,11024,5,101069,200989
2025-02-27 19:03:05.723,43761,15246,11033,4,101069,200991
2025-02-27 19:03:05.725,43737,15251,11027,8,101135,201059
2025-02-27 19:03:05.727,43723,15255,11036,5,101174,201133
2025-02-27 19:03:05.728,43698,15260,11042,0,101241,201194
2025-02-27 19:03:05.730,43662,15253,11039,0,101285,201288
2025-02-27 19:03:05.731,43650,15260,11051,5,101357,201330
2025-02-27 19:03:05.733,43621,15253,11051,2,101405,201401
2025-02-27 19:03:05.735,43601,15248,11058,4,101467,201449
2025-02-27 19:03:05.736,43554,15248,11059,4,101502,201519
2025-02-27 19:03:05.738,43531,15249,11061,5,101522,201566
2025-02-27 19:03:05.740,43493,15236,11057,3,101514,201581
2025-02-27 19:03:05.742,43490,15243,11058,3,101543,201563
2025-02-27 19:03:05.746,43493,15250,11058,0,101527,201595
2025-02-27 19:03:05.754,43481,15253,11063,2,101538,201593
2025-02-27 19:03:05.899,43462,15255,11061,4,101502,201597
2025-02-27 19:03:05.901,43472,15259,11070,2,101507,201585
2025-02-27 19:03:05.903,43472,15259,11070,2,101507,201585
2025-02-27 19:03:05.905,43484,15257,11073,4,101499,201537
2025-02-27 19:03:05.906,43477,15256,11075,6,101472,201553
2025-02-27 19:03:05.908,43470,15255,11079,2,101451,201546
2025-02-27 19:03:05.910,43443,15257,11083,0,101438,201518
2025-02-27 19:03:05.912,43421,15258,11090,3,101435,201465
2025-02-27 19:03:05.913,43387,15257,11092,0,101424,201463
2025-02-27 19:03:05.915,43374,15261,11095,2,101410,201440
2025-02-27 19:03:05.917,43348,15253,11097,0,101371,201408
2025-02-27 19:03:05.918,43325,15266,11096,4,101394,201375
2025-02-27 19:03:05.920,43301,15253,11101,4,101341,201306
2025-02-27 19:03:05.922,43290,15265,11102,5,101349,201270
2025-02-27 19:03:05.923,43282,15245,11103,8,101301,201260
2025-02-27 19:03:05.927,43281,15255,11102,2,101306,201214
2025-02-27 19:03:05.929,43264,15244,11098,5,101265,201197
2025-02-27 19:03:05.930,43280,15246,11098,1,101243,201135
2025-02-27 19:03:05.933,43262,15229,11094,7,101220,201115
2025-02-27 19:03:05.945,43289,15236,11098,7,101205,201054
2025-02-27 19:03:06.103,43284,15223,11095,0,101185,201021
2025-02-27 19:03:06.105,43298,15225,11094,3,101215,200983
2025-02-27 19:03:06.106,43322,15218,11081,2,101171,201005
2025-02-27 19:03:06.108,43341,15215,11083,2,101192,200999
2025-02-27 19:03:06.110,43341,15214,11080,6,101165,201009
2025-02-27 19:03:06.111,43363,15220,11072,5,101171,200937
2025-02-27 19:03:06.113,43321,15204,11071,1,101129,200961
2025-02-27 19:03:06.115,43324,15212,11074,2,101130,200947
2025-02-27 19:03:06.116,43302,15192,11068,2,101115,200920
2025-02-27 19:03:06.118,43290,15201,11068,4,101115,200876
2025-02-27 19:03:06.119,43257,15187,11060,0,101088,200886
2025-02-27 19:03:06.121,43243,15187,11071,0,101102,200873
2025-02-27 19:03:06.122,43221,15178,11057,6,101096,200889
2025-02-27 19:03:06.123,43195,15194,11060,2,101077,200831
2025-02-27 19:03:06.125,43174,15180,11053,6,101056,200817
2025-02-27 19:03:06.127,43163,15184,11064,0,101026,200780
2025-02-27 19:03:06.129,43170,15178,11063,6,101026,200785
2025-02-27 19:03:06.130,43190,15188,11063,3,101036,200802
2025-02-27 19:03:06.137,43204,15189,11085,1,101032,200763
2025-02-27 19:03:06.145,43279,15183,11094,10,101053,200806
2025-02-27 19:03:06.279,43289,15176,11079,0,101058,200819
2025-02-27 19:03:06.282,43343,15196,11084,6,101088,200838
2025-02-27 19:03:06.284,43348,15198,11072,0,101082,200847
2025-02-27 19:03:06.286,43360,15183,11087,6,101076,200842
2025-02-27 19:03:06.287,43352,15200,11078,0,101053,200831
2025-02-27 19:03:06.289,43328,15184,11076,8,101037,200816
2025-02-27 19:03:06.291,43284,15168,11073,2,100996,200774
2025-02-27 19:03:06.293,43254,15175,11100,7,100952,200725
2025-02-27 19:03:06.295,43220,15161,11060,3,100911,200649
2025-02-27 19:03:06.296,43192,15155,11080,3,100896,200572
2025-02-27 19:03:06.298,43148,15152,11066,2,100853,200508
2025-02-27 19:03:06.300,43133,15147,11062,0,100825,200419
2025-02-27 19:03:06.301,43088,15129,11067,19,100778,200361
2025-02-27 19:03:06.303,43079,15139,11063,0,100730,200313
2025-02-27 19:03:06.305,43048,15138,11062,0,100698,200261
2025-02-27 19:03:06.310,43038,15121,11063,20,100680,200168
2025-02-27 19:03:06.317,43017,15118,11060,0,100676,200151
2025-02-27 19:03:06.469,43013,15116,11066,7,100664,200127
2025-02-27 19:03:06.471,43002,15106,11074,1,100657,200104
2025-02-27 19:03:06.473,42993,15115,11073,3,100615,200097
2025-02-27 19:03:06.475,42971,15117,11064,9,100622,200068
2025-02-27 19:03:06.476,42975,15123,11075,8,100633,200064
2025-02-27 19:03:06.478,42972,15119,11064,0,100641,200088
2025-02-27 19:03:06.480,42981,15124,11070,1,100652,200081
2025-02-27 19:03:06.481,42987,15116,11074,1,100663,200145
2025-02-27 19:03:06.483,42988,15133,11083,6,100671,200106
2025-02-27 19:03:06.485,43003,15130,11086,6,100693,200138
2025-02-27 19:03:06.486,43033,15143,11082,15,100716,200189
2025-02-27 19:03:06.488,43041,15138,11088,13,100689,200203
2025-02-27 19:03:06.489,43072,15142,11089,0,100716,200203
2025-02-27 19:03:06.491,43080,15139,11093,3,100710,200188
2025-02-27 19:03:06.492,43094,15143,11097,4,100709,200183
2025-02-27 19:03:06.494,43107,15128,11084,1,100691,200197
2025-02-27 19:03:06.495,43125,15129,11089,1,100691,200164
2025-02-27 19:03:06.498,43133,15122,11076,13,100668,200135
2025-02-27 19:03:06.509,43158,15117,11072,11,100653,200124
2025-02-27 19:03:06.518,43176,15119,11070,0,100642,200087
2025-02-27 19:03:06.645,43196,15111,11070,7,100649,200078
2025-02-27 19:03:06.647,43207,15114,11059,12,100625,200071
2025-02-27 19:03:06.649,43222,15103,11054,4,100629,200040
2025-02-27 19:03:06.651,43199,15105,11057,2,100620,200062
2025-02-27 19:03:06.653,43217,15111,11064,1,100598,200019
2025-02-27 19:03:06.655,43198,15100,11048,0,100571,200010
2025-02-27 19:03:06.656,43198,15100,11048,0,100571,200010
2025-02-27 19:03:06.658,43179,15087,11047,3,100534,199922
2025-02-27 19:03:06.660,43173,15087,11053,3,100525,199901
2025-02-27 19:03:06.661,43169,15073,11047,1,100493,199891
2025-02-27 19:03:06.662,43165,15077,11047,0,100505,199867
2025-02-27 19:03:06.664,43153,15078,11038,1,100468,199837
2025-02-27 19:03:06.665,43161,15072,11050,3,100462,199822
2025-02-27 19:03:06.667,43151,15076,11049,4,100456,199782
2025-02-27 19:03:06.669,43166,15071,11048,0,100465,199818
2025-02-27 19:03:06.670,43171,15069,11054,0,100471,199831
2025-02-27 19:03:06.682,43196,15083,11053,2,100448,199799
2025-02-27 19:03:06.690,43212,15073,11049,1,100464,199813
2025-02-27 19:03:06.847,43223,15085,11065,0,100496,199795
2025-02-27 19:03:06.849,43253,15083,11063,7,100489,199853
2025-02-27 19:03:06.850,43288,15087,11061,3,100500,199826
2025-02-27 19:03:06.852,43313,15083,11058,5,100509,199879
2025-02-27 19:03:06.854,43349,15082,11067,7,100550,199903
2025-02-27 19:03:06.856,43375,15087,11066,2,100554,199912
2025-02-27 19:03:06.858,43390,15087,11073,0,100560,199927
2025-02-27 19:03:06.860,43400,15091,11074,0,100552,199939
2025-02-27 19:03:06.863,43414,15107,11076,3,100555,199937
2025-02-27 19:03:06.864,43421,15095,11068,4,100550,199946
2025-02-27 19:03:06.865,43414,15102,11076,14,100564,199955
2025-02-27 19:03:06.867,43403,15091,11072,0,100536,199949
2025-02-27 19:03:06.869,43382,15087,11077,0,100530,199911
2025-02-27 19:03:06.870,43360,15088,11067,9,100537,199874
2025-02-27 19:03:06.872,43354,15078,11066,4,100494,199852
2025-02-27 19:03:06.873,43313,15094,11055,2,100481,199814
2025-02-27 19:03:06.875,43292,15084,11061,1,100478,199803
2025-02-27 19:03:06.878,43256,15072,11066,2,100437,199760
2025-02-27 19:03:06.881,43215,15070,11057,6,100375,199689
2025-02-27 19:03:06.889,43188,15065,11055,12,100332,199626
2025-02-27 19:03:07.022,43157,15071,11071,2,100320,199581
2025-02-27 19:03:07.024,43130,15060,11052,0,100306,199563
2025-02-27 19:03:07.026,43150,15072,11066,6,100329,199545
2025-02-27 19:03:07.028,43199,15075,11070,0,100371,199580
2025-02-27 19:03:07.030,43269,15082,11080,8,100479,199668
2025-02-27 19:03:07.031,43343,15102,11094,11,100529,199760
2025-02-27 19:03:07.033,43448,15110,11102,0,100622,199921
2025-02-27 19:03:07.035,43498,15125,11105,3,100687,200051
2025-02-27 19:03:07.036,43561,15148,11115,0,100744,200132
2025-02-27 19:03:07.038,43600,15157,11121,0,100789,200231
2025-02-27 19:03:07.039,43630,15169,11135,8,100779,200284
2025-02-27 19:03:07.041,43648,15173,11119,12,100794,200300
2025-02-27 19:03:07.042,43667,15190,11133,3,100781,200310
2025-02-27 19:03:07.044,43675,15189,11127,2,100777,200303
2025-02-27 19:03:07.045,43698,15185,11131,0,100773,200294
2025-02-27 19:03:07.053,43714,15191,11124,1,100730,200257
2025-02-27 19:03:07.062,43754,15194,11135,7,100741,200243
2025-02-27 19:03:07.226,43782,15189,11128,9,100756,200214
2025-02-27 19:03:07.228,43808,15196,11130,4,100776,200229
2025-02-27 19:03:07.230,43838,15187,11103,2,100788,200266
2025-02-27 19:03:07.232,43832,15190,11117,10,100829,200329
2025-02-27 19:03:07.234,43833,15185,11115,0,100809,200343
2025-02-27 19:03:07.235,43817,15192,11104,5,100813,200341
2025-02-27 19:03:07.237,43780,15182,11107,7,100816,200347
2025-02-27 19:03:07.239,43764,15190,11101,5,100795,200348
2025-02-27 19:03:07.240,43721,15183,11102,0,100779,200356
2025-02-27 19:03:07.242,43696,15186,11105,14,100758,200308
2025-02-27 19:03:07.243,43665,15197,11103,0,100760,200308
2025-02-27 19:03:07.245,43648,15174,11117,2,100761,200269
2025-02-27 19:03:07.246,43618,15178,11106,6,100756,200274
2025-02-27 19:03:07.248,43598,15168,11120,5,100748,200232
2025-02-27 19:03:07.250,43588,15186,11082,1,100733,200265
2025-02-27 19:03:07.251,43577,15184,11121,9,100739,200257
2025-02-27 19:03:07.253,43563,15179,11099,0,100749,200264
2025-02-27 19:03:07.255,43560,15174,11102,4,100736,200239
2025-02-27 19:03:07.257,43548,15179,11096,12,100752,200265
2025-02-27 19:03:07.261,43538,15176,11108,0,100732,200236
2025-02-27 19:03:07.274,43533,15173,11098,9,100741,200261
2025-02-27 19:03:07.416,43533,15177,11103,11,100738,200253
2025-02-27 19:03:07.418,43540,15168,11103,0,100741,200251
2025-02-27 19:03:07.420,43542,15178,11109,0,100739,200213
2025-02-27 19:03:07.422,43550,15171,11110,1,100744,200224
2025-02-27 19:03:07.424,43538,15173,11112,7,100725,200223
2025-02-27 19:03:07.426,43553,15179,11108,0,100742,200239
2025-02-27 19:03:07.427,43564,15179,11110,4,100737,200228
2025-02-27 19:03:07.429,43560,15183,11107,3,100732,200271
2025-02-27 19:03:07.431,43563,15181,11111,8,100753,200246
2025-02-27 19:03:07.433,43568,15181,11114,1,100751,200294
2025-02-27 19:03:07.434,43568,15189,11110,7,100761,200264
2025-02-27 19:03:07.436,43568,15191,11112,5,100761,200301
2025-02-27 19:03:07.437,43569,15185,11116,7,100797,200297
2025-02-27 19:03:07.439,43556,15203,11113,7,100771,200340
2025-02-27 19:03:07.440,43547,15203,11121,2,100779,200308
2025-02-27 19:03:07.442,43543,15209,11113,0,100765,200326
2025-02-27 19:03:07.446,43518,15192,11114,3,100768,200309
2025-02-27 19:03:07.453,43518,15208,11120,1,100743,200298
2025-02-27 19:03:07.611,43501,15196,11123,8,100747,200258
2025-02-27 19:03:07.613,43509,15197,11125,3,100731,200287
2025-02-27 19:03:07.615,43484,15204,11123,0,100735,200265
2025-02-27 19:03:07.617,43487,15209,11123,4,100725,200238
2025-02-27 19:03:07.618,43484,15212,11138,9,100719,200251
2025-02-27 19:03:07.620,43472,15216,11134,12,100744,200263
2025-02-27 19:03:07.622,43471,15207,11135,4,100709,200246
2025-02-27 19:03:07.623,43472,15229,11134,0,100736,200254
2025-02-27 19:03:07.625,43469,15207,11131,0,100698,200256
2025-02-27 19:03:07.627,43456,15210,11133,0,100685,200245
2025-02-27 19:03:07.629,43436,15199,11132,13,100650,200227
2025-02-27 19:03:07.630,43438,15200,11132,3,100649,200177
2025-02-27 19:03:07.632,43431,15202,11125,5,100629,200137
2025-02-27 19:03:07.634,43431,15202,11125,5,100629,200137
2025-02-27 19:03:07.636,43440,15186,11120,5,100622,200117
2025-02-27 19:03:07.638,43449,15185,11118,6,100617,200090
2025-02-27 19:03:07.639,43463,15181,11109,4,100615,200105
2025-02-27 19:03:07.641,43483,15169,11112,6,100613,200109
2025-02-27 19:03:07.643,43488,15163,11092,2,100607,200092
2025-02-27 19:03:07.646,43514,15157,11099,5,100614,200090
2025-02-27 19:03:07.653,43516,15158,11092,1,100614,200113
2025-02-27 19:03:07.788,43532,15156,11086,0,100617,200098
2025-02-27 19:03:07.790,43536,15154,11090,2,100629,200081
2025-02-27 19:03:07.792,43544,15148,11081,0,100630,200136
2025-02-27 19:03:07.794,43556,15157,11080,9,100629,200148
2025-02-27 19:03:07.796,43553,15156,11092,2,100653,200134
2025-02-27 19:03:07.798,43563,15147,11084,5,100669,200126
2025-02-27 19:03:07.800,43561,15153,11094,0,100651,200163
2025-02-27 19:03:07.802,43562,15156,11085,4,100655,200142
2025-02-27 19:03:07.804,43567,15157,11084,0,100679,200160
2025-02-27 19:03:07.806,43572,15151,11089,0,100677,200172
2025-02-27 19:03:07.807,43561,15155,11088,9,100659,200171
2025-02-27 19:03:07.809,43520,15156,11088,5,100644,200182
2025-02-27 19:03:07.811,43525,15160,11087,12,100639,200181
2025-02-27 19:03:07.813,43521,15147,11087,1,100647,200166
2025-02-27 19:03:07.816,43513,15154,11087,2,100661,200152
2025-02-27 19:03:07.818,43491,15158,11081,0,100651,200155
2025-02-27 19:03:07.827,43493,15148,11086,3,100641,200116
2025-02-27 19:03:07.837,43486,15154,11090,0,100649,200137
2025-02-27 19:03:08.001,43482,15150,11089,8,100626,200128
2025-02-27 19:03:08.003,43484,15155,11084,3,100629,200096
2025-02-27 19:03:08.005,43475,15148,11089,8,100632,200095
2025-02-27 19:03:08.006,43469,15144,11080,1,100618,200116
2025-02-27 19:03:08.008,43468,15156,11085,10,100618,200117
2025-02-27 19:03:08.010,43465,15142,11085,6,100612,200145
2025-02-27 19:03:08.012,43474,15152,11095,5,100637,200112
2025-02-27 19:03:08.014,43461,15144,11087,2,100607,200111
2025-02-27 19:03:08.015,43467,15154,11085,0,100611,200099
2025-02-27 19:03:08.017,43460,15150,11081,4,100613,200095
2025-02-27 19:03:08.019,43451,15150,11082,0,100603,200096
2025-02-27 19:03:08.020,43438,15148,11085,0,100607,200118
2025-02-27 19:03:08.022,43436,15156,11087,5,100623,200093
2025-02-27 19:03:08.024,43412,15149,11093,4,100590,200094
2025-02-27 19:03:08.026,43415,15149,11085,0,100614,200076
2025-02-27 19:03:08.028,43385,15150,11082,0,100578,200039
2025-02-27 19:03:08.030,43383,15141,11090,0,100576,200048
2025-02-27 19:03:08.032,43351,15155,11089,10,100544,200068
2025-02-27 19:03:08.034,43352,15147,11090,5,100542,200041
2025-02-27 19:03:08.039,43345,15151,11090,3,100552,200002
2025-02-27 19:03:08.049,43330,15152,11090,8,100536,200026
2025-02-27 19:03:08.213,43330,15146,11086,3,100526,200049
2025-02-27 19:03:08.215,43321,15155,11094,5,100540,199996
2025-02-27 19:03:08.217,43328,15153,11101,7,100549,200008
2025-02-27 19:03:08.219,43330,15147,11097,2,100526,200021
2025-02-27 19:03:08.220,43333,15152,11097,6,100529,200018
2025-02-27 19:03:08.222,43337,15168,11102,0,100537,200023
2025-02-27 19:03:08.224,43315,15150,11097,10,100531,200001
2025-02-27 19:03:08.226,43329,15151,11098,6,100520,199993
2025-02-27 19:03:08.228,43322,15156,11096,0,100514,199977
2025-02-27 19:03:08.230,43331,15145,11099,0,100497,199978
2025-02-27 19:03:08.231,43327,15137,11085,6,100491,199953
2025-02-27 19:03:08.233,43341,15127,11109,9,100474,199931
2025-02-27 19:03:08.235,43350,15129,11065,0,100507,199918
2025-02-27 19:03:08.236,43367,15120,11088,1,100479,199920
2025-02-27 19:03:08.238,43374,15126,11071,0,100490,199923
2025-02-27 19:03:08.240,43392,15123,11066,0,100499,199907
2025-02-27 19:03:08.241,43401,15120,11063,16,100488,199921
2025-02-27 19:03:08.243,43419,15119,11062,0,100520,199915
2025-02-27 19:03:08.245,43433,15115,11055,0,100510,199966
2025-02-27 19:03:08.250,43428,15117,11056,9,100508,199963
2025-02-27 19:03:08.257,43426,15116,11065,0,100515,199969
2025-02-27 19:03:08.412,43434,15108,11053,0,100517,199956
2025-02-27 19:03:08.414,43440,15106,11052,2,100531,199970
2025-02-27 19:03:08.416,43440,15105,11057,1,100511,199977
2025-02-27 19:03:08.418,43427,15108,11050,1,100530,199976
2025-02-27 19:03:08.420,43418,15110,11063,1,100519,199973
2025-02-27 19:03:08.422,43403,15109,11055,2,100502,199998
2025-02-27 19:03:08.424,43396,15108,11054,4,100501,199966
2025-02-27 19:03:08.426,43370,15099,11055,3,100490,199989
2025-02-27 19:03:08.428,43360,15109,11065,0,100474,199914
2025-02-27 19:03:08.430,43338,15097,11048,3,100449,199927
2025-02-27 19:03:08.432,43312,15102,11051,4,100461,199901
2025-02-27 19:03:08.434,43286,15096,11057,7,100433,199879
2025-02-27 19:03:08.436,43266,15102,11054,1,100433,199862
2025-02-27 19:03:08.438,43238,15091,11047,8,100416,199877
2025-02-27 19:03:08.440,43235,15096,11049,4,100399,199825
2025-02-27 19:03:08.443,43207,15089,11049,0,100379,199816
2025-02-27 19:03:08.444,43197,15092,11046,3,100387,199757
2025-02-27 19:03:08.447,43179,15089,11047,2,100362,199804
2025-02-27 19:03:08.450,43177,15082,11036,2,100372,199782
2025-02-27 19:03:08.607,43156,15080,11044,5,100350,199791
2025-02-27 19:03:08.609,43148,15087,11035,0,100367,199776
2025-02-27 19:03:08.611,43138,15087,11046,6,100370,199712
2025-02-27 19:03:08.613,43134,15086,11046,0,100343,199721
2025-02-27 19:03:08.615,43121,15088,11044,4,100327,199720
2025-02-27 19:03:08.616,43123,15084,11038,3,100318,199691
2025-02-27 19:03:08.618,43092,15076,11039,4,100319,199722
2025-02-27 19:03:08.620,43096,15086,11053,2,100321,199695
2025-02-27 19:03:08.622,43075,15076,11042,4,100328,199687
2025-02-27 19:03:08.624,43083,15076,11044,3,100330,199696
2025-02-27 19:03:08.626,43055,15078,11040,6,100326,199716
2025-02-27 19:03:08.628,43061,15091,11036,2,100323,199700
2025-02-27 19:03:08.630,43038,15084,11044,0,100315,199682
2025-02-27 19:03:08.632,43047,15080,11049,3,100323,199671
2025-02-27 19:03:08.634,43047,15080,11049,3,100323,199671
2025-02-27 19:03:08.636,43020,15084,11057,1,100291,199654
2025-02-27 19:03:08.638,43020,15074,11048,4,100301,199673
2025-02-27 19:03:08.640,43024,15084,11058,1,100290,199671
2025-02-27 19:03:08.643,43000,15082,11047,6,100291,199693
2025-02-27 19:03:08.646,43011,15088,11060,1,100292,199653
2025-02-27 19:03:08.649,42999,15084,11058,4,100268,199686
2025-02-27 19:03:08.822,42997,15076,11065,3,100282,199669
2025-02-27 19:03:08.824,42992,15082,11056,5,100250,199656
2025-02-27 19:03:08.826,42977,15080,11059,0,100266,199633
2025-02-27 19:03:08.828,42958,15073,11063,3,100240,199653
2025-02-27 19:03:08.830,42957,15078,11061,0,100239,199635
2025-02-27 19:03:08.831,42938,15065,11057,1,100198,199594
2025-02-27 19:03:08.833,42925,15068,11066,7,100193,199550
2025-02-27 19:03:08.835,42909,15065,11057,12,100211,199533
2025-02-27 19:03:08.836,42916,15053,11047,0,100176,199523
2025-02-27 19:03:08.838,42909,15041,11040,5,100181,199515
2025-02-27 19:03:08.840,42923,15050,11034,0,100190,199484
2025-02-27 19:03:08.842,42925,15041,11036,0,100142,199478
2025-02-27 19:03:08.843,42937,15034,11022,1,100182,199483
2025-02-27 19:03:08.845,42949,15024,11024,1,100156,199468
2025-02-27 19:03:08.847,42975,15029,11026,6,100188,199477
2025-02-27 19:03:08.849,42975,15034,11023,4,100176,199492
2025-02-27 19:03:08.852,42996,15033,11025,2,100181,199493
2025-02-27 19:03:08.854,42995,15024,11012,7,100170,199521
2025-02-27 19:03:08.856,43012,15034,11009,4,100180,199487
2025-02-27 19:03:08.859,42995,15022,11011,9,100182,199509
2025-02-27 19:03:08.863,43013,15026,11016,0,100188,199507
2025-02-27 19:03:09.032,43000,15023,11013,0,100175,199523
2025-02-27 19:03:09.034,43007,15028,11018,6,100189,199507
2025-02-27 19:03:09.036,42995,15021,11017,11,100198,199512
2025-02-27 19:03:09.038,42984,15020,11019,0,100189,199523
2025-02-27 19:03:09.040,42990,15021,11012,1,100176,199513
2025-02-27 19:03:09.042,42999,15026,11013,7,100199,199506
2025-02-27 19:03:09.044,42966,15024,11006,6,100168,199510
2025-02-27 19:03:09.046,42975,15023,11018,4,100182,199511
2025-02-27 19:03:09.048,42953,15015,11009,4,100176,199478
2025-02-27 19:03:09.050,42940,15020,11016,5,100171,199494
2025-02-27 19:03:09.052,42922,15026,11021,2,100164,199517
2025-02-27 19:03:09.054,42923,15025,11011,4,100148,199482
2025-02-27 19:03:09.056,42901,15015,11022,0,100134,199461
2025-02-27 19:03:09.058,42923,15032,11004,3,100158,199481
2025-02-27 19:03:09.060,42895,15018,11007,0,100132,199458
2025-02-27 19:03:09.062,42898,15017,11016,4,100135,199450
2025-02-27 19:03:09.064,42897,15009,11008,0,100142,199451
2025-02-27 19:03:09.066,42887,15016,11014,0,100141,199434
2025-02-27 19:03:09.069,42876,15019,11009,7,100109,199431
2025-02-27 19:03:09.072,42874,15021,11015,0,100128,199448
2025-02-27 19:03:09.076,42867,15002,11006,13,100114,199423
2025-02-27 19:03:09.305,42857,15022,11010,1,100111,199402
2025-02-27 19:03:09.307,42843,14998,11007,3,100106,199419
2025-02-27 19:03:09.310,42849,15014,11016,0,100130,199413
2025-02-27 19:03:09.313,42840,15009,11027,8,100113,199404
2025-02-27 19:03:09.316,42828,15015,11003,0,100105,199396
2025-02-27 19:03:09.318,42817,15013,11022,0,100088,199402
2025-02-27 19:03:09.321,42816,15017,11019,5,100101,199409
2025-02-27 19:03:09.324,42799,15000,11010,2,100111,199387
2025-02-27 19:03:09.327,42810,15014,11019,7,100109,199409
2025-02-27 19:03:09.329,42805,15008,11017,0,100074,199405
2025-02-27 19:03:09.333,42797,15014,11017,0,100093,199385
2025-02-27 19:03:09.336,42788,15012,11014,7,100086,199414
2025-02-27 19:03:09.338,42789,15017,11033,3,100073,199374
2025-02-27 19:03:09.341,42771,15016,11023,4,100065,199401
2025-02-27 19:03:09.343,42786,15015,11025,6,100086,199395
2025-02-27 19:03:09.346,42765,15002,11025,2,100063,199373
2025-02-27 19:03:09.348,42779,15012,11029,4,100089,199405
2025-02-27 19:03:09.350,42764,15008,11025,0,100046,199392
2025-02-27 19:03:09.354,42763,15010,11029,11,100073,199378
2025-02-27 19:03:09.547,42744,15009,11029,0,100072,199380
2025-02-27 19:03:09.550,42750,15020,11030,3,100056,199379
2025-02-27 19:03:09.552,42730,15013,11030,0,100029,199338
2025-02-27 19:03:09.554,42727,15013,11031,0,100028,199336
2025-02-27 19:03:09.556,42721,15001,11025,7,99994,199326
2025-02-27 19:03:09.558,42714,14997,11028,3,99987,199254
2025-02-27 19:03:09.560,42718,14999,11018,0,99991,199283
2025-02-27 19:03:09.562,42713,14991,11029,13,100024,199268
2025-02-27 19:03:09.564,42735,14982,11010,5,100002,199278
2025-02-27 19:03:09.565,42760,14983,11012,17,100013,199255
2025-02-27 19:03:09.567,42773,14980,11004,1,100013,199266
2025-02-27 19:03:09.569,42790,14991,11004,0,100012,199251
2025-02-27 19:03:09.571,42798,14980,10995,0,100018,199276
2025-02-27 19:03:09.572,42822,14984,11004,0,100042,199302
2025-02-27 19:03:09.574,42848,14974,10994,2,100042,199307
2025-02-27 19:03:09.576,42844,14968,10994,5,100057,199312
2025-02-27 19:03:09.578,42850,14973,10990,0,100068,199339
2025-02-27 19:03:09.579,42852,14981,10997,9,100056,199341
2025-02-27 19:03:09.581,42861,14972,10984,0,100054,199353
2025-02-27 19:03:09.583,42857,14980,11000,2,100061,199364
2025-02-27 19:03:09.586,42854,14977,10985,8,100052,199351
2025-02-27 19:03:09.588,42862,14978,10994,0,100074,199331
2025-02-27 19:03:09.590,42851,14980,10989,5,100075,199366
2025-02-27 19:03:09.591,42854,14983,10992,5,100058,199360
2025-02-27 19:03:09.593,42845,14971,10990,1,100068,199365
2025-02-27 19:03:09.595,42841,14982,10995,5,100075,199352
2025-02-27 19:03:09.757,42851,14981,10995,2,100059,199382
2025-02-27 19:03:09.759,42841,14981,10982,1,100063,199348
2025-02-27 19:03:09.761,42837,14976,10992,0,100067,199364
2025-02-27 19:03:09.763,42827,14984,10994,0,100087,199381
2025-02-27 19:03:09.765,42830,14982,10985,3,100077,199376
2025-02-27 19:03:09.767,42818,14982,10996,12,100074,199380
2025-02-27 19:03:09.769,42834,14985,10993,5,100082,199382
2025-02-27 19:03:09.771,42834,14985,10993,5,100082,199382
2025-02-27 19:03:09.773,42827,14986,10990,1,100056,199405
2025-02-27 19:03:09.775,42829,14983,10993,4,100069,199374
2025-02-27 19:03:09.777,42838,14983,10995,4,100094,199389
2025-02-27 19:03:09.779,42835,14979,10999,0,100098,199414
2025-02-27 19:03:09.780,42828,14982,10993,9,100085,199392
2025-02-27 19:03:09.782,42844,14991,10992,4,100098,199409
2025-02-27 19:03:09.784,42841,14983,10994,5,100100,199419
2025-02-27 19:03:09.786,42841,14990,10999,6,100084,199438
2025-02-27 19:03:09.787,42833,14988,10998,1,100081,199433
2025-02-27 19:03:09.789,42842,14993,11006,2,100115,199421
2025-02-27 19:03:09.791,42833,14996,10991,5,100085,199447
2025-02-27 19:03:09.794,42836,14997,11002,6,100092,199446
2025-02-27 19:03:09.796,42831,14989,11008,2,100111,199463
2025-02-27 19:03:09.798,42832,15000,11006,2,100128,199500
2025-02-27 19:03:09.800,42836,14996,11009,9,100119,199499
2025-02-27 19:03:09.801,42833,14999,11009,9,100119,199452
2025-02-27 19:03:09.803,42838,15009,11010,6,100144,199487
2025-02-27 19:03:09.806,42839,15008,11015,8,100129,199511
2025-02-27 19:03:09.947,42845,15006,11018,7,100116,199504
2025-02-27 19:03:09.950,42839,15013,11019,8,100126,199527
2025-02-27 19:03:09.953,42842,15014,11013,0,100141,199508
2025-02-27 19:03:09.955,42843,15018,11015,7,100162,199520
2025-02-27 19:03:09.958,42864,15017,11021,7,100150,199519
2025-02-27 19:03:09.960,42855,15021,11021,2,100146,199551
2025-02-27 19:03:09.963,42859,15022,11031,11,100159,199571
2025-02-27 19:03:09.965,42855,15017,11017,7,100174,199586
2025-02-27 19:03:09.967,42842,15022,11028,4,100166,199579
2025-02-27 19:03:09.969,42846,15037,11034,9,100172,199560
2025-02-27 19:03:09.971,42848,15016,11034,8,100161,199560
2025-02-27 19:03:09.972,42831,15022,11021,1,100125,199528
2025-02-27 19:03:09.976,42830,15012,11021,10,100113,199522
2025-02-27 19:03:09.979,42815,15000,11017,5,100118,199513
2025-02-27 19:03:09.981,42822,15018,11021,2,100114,199481
2025-02-27 19:03:09.983,42826,14996,11015,2,100111,199488
2025-02-27 19:03:09.985,42847,15005,11011,0,100114,199458
2025-02-27 19:03:09.987,42842,14997,11014,5,100109,199462
2025-02-27 19:03:09.989,42878,15004,11004,5,100108,199477
2025-02-27 19:03:09.992,42855,14997,11002,2,100122,199492
2025-02-27 19:03:09.995,42896,14996,10991,1,100143,199497
2025-02-27 19:03:10.158,42881,15005,10991,0,100150,199506
2025-02-27 19:03:10.160,42915,15002,10996,0,100152,199517
2025-02-27 19:03:10.162,42918,15017,10993,0,100168,199557
2025-02-27 19:03:10.164,42930,14987,10992,5,100175,199537
2025-02-27 19:03:10.166,42926,15006,10990,4,100168,199569
2025-02-27 19:03:10.168,42939,15004,10988,3,100173,199580
2025-02-27 19:03:10.169,42938,15009,10977,5,100194,199602
2025-02-27 19:03:10.171,42945,15005,11007,4,100193,199628
2025-02-27 19:03:10.173,42960,15003,10970,11,100247,199642
2025-02-27 19:03:10.175,42978,14995,10996,0,100296,199678
2025-02-27 19:03:10.178,42976,14985,10999,5,100320,199733
2025-02-27 19:03:10.180,42993,14990,10979,5,100359,199777
2025-02-27 19:03:10.182,42991,14982,10976,8,100344,199829
2025-02-27 19:03:10.184,42985,14970,10973,12,100411,199858
2025-02-27 19:03:10.186,42924,14940,10948,0,100534,199952
2025-02-27 19:03:10.187,42894,14907,10930,18,100763,200131
2025-02-27 19:03:10.189,42896,14848,10883,0,100974,200481
2025-02-27 19:03:10.191,42957,14772,10830,1,101022,200800
2025-02-27 19:03:10.194,43028,14687,10755,0,101059,200924
2025-02-27 19:03:10.197,43102,14609,10690,5,101172,201028
2025-02-27 19:03:10.202,43214,14549,10626,3,101297,201274
2025-02-27 19:03:10.333,43379,14489,10563,0,101522,201548
2025-02-27 19:03:10.335,43563,14440,10498,0,101839,201890
2025-02-27 19:03:10.337,43752,14413,10442,7,102236,202379
2025-02-27 19:03:10.339,43912,14395,10395,0,102700,202984
2025-02-27 19:03:10.340,44092,14400,10364,8,103179,203784
2025-02-27 19:03:10.342,44266,14420,10329,0,103603,204632
2025-02-27 19:03:10.344,44460,14460,10301,6,103989,205421
2025-02-27 19:03:10.346,44634,14501,10284,7,104288,206111
2025-02-27 19:03:10.347,44795,14540,10265,1,104580,206677
2025-02-27 19:03:10.349,44947,14584,10253,5,104837,207155
2025-02-27 19:03:10.351,45122,14637,10241,5,105067,207604
2025-02-27 19:03:10.352,45298,14692,10237,1,105290,208045
2025-02-27 19:03:10.354,45540,14749,10238,1,105478,208381
2025-02-27 19:03:10.356,45830,14819,10249,4,105700,208697
2025-02-27 19:03:10.357,46118,14888,10243,0,105873,209029
2025-02-27 19:03:10.361,46362,14950,10263,5,105990,209221
2025-02-27 19:03:10.374,46520,15021,10271,0,106078,209364
2025-02-27 19:03:10.382,46636,15099,10282,7,106104,209347
2025-02-27 19:03:10.532,46790,15191,10293,1,106126,209296
2025-02-27 19:03:10.534,47010,15302,10319,0,106173,209154
2025-02-27 19:03:10.536,47010,15302,10319,0,106173,209154
2025-02-27 19:03:10.538,47517,15551,10405,0,106367,209080
2025-02-27 19:03:10.540,47589,15700,10472,4,106390,208935
2025-02-27 19:03:10.542,47419,15834,10536,0,106186,208745
2025-02-27 19:03:10.544,47103,15950,10598,0,105890,208405
2025-02-27 19:03:10.545,46771,16061,10666,5,105640,207970
2025-02-27 19:03:10.547,46557,16185,10738,2,105666,207701
2025-02-27 19:03:10.549,46431,16296,10812,4,105779,207705
2025-02-27 19:03:10.550,46336,16382,10893,0,106048,207803
2025-02-27 19:03:10.552,46243,16446,10949,4,106226,207956
2025-02-27 19:03:10.554,46130,16498,11004,4,106276,208137
2025-02-27 19:03:10.555,46008,16519,11053,2,106252,208143
2025-02-27 19:03:10.557,45916,16533,11097,0,106181,208061
2025-02-27 19:03:10.559,45815,16534,11127,2,106125,207947
2025-02-27 19:03:10.561,45722,16532,11146,5,106070,207808
2025-02-27 19:03:10.563,45621,16516,11175,3,105983,207679
2025-02-27 19:03:10.564,45508,16491,11180,6,105856,207538
2025-02-27 19:03:10.574,45429,16441,11187,0,105907,207298
2025-02-27 19:03:10.581,45413,16380,11194,4,106101,207335
2025-02-27 19:03:10.714,45421,16336,11189,7,106325,207545
2025-02-27 19:03:10.716,45451,16280,11176,0,106566,207869
2025-02-27 19:03:10.717,45482,16200,11144,0,106718,208187
2025-02-27 19:03:10.719,45480,16122,11112,1,106823,208464
2025-02-27 19:03:10.721,45436,16013,11060,0,106782,208548
2025-02-27 19:03:10.723,45419,15892,11004,0,106624,208545
2025-02-27 19:03:10.725,45377,15782,10936,4,106463,208377
2025-02-27 19:03:10.727,45359,15691,10878,4,106306,208308
2025-02-27 19:03:10.729,45333,15600,10813,4,106167,208190
2025-02-27 19:03:10.730,45357,15543,10765,0,106180,208168
2025-02-27 19:03:10.732,45370,15477,10722,1,106244,208258
2025-02-27 19:03:10.733,45412,15445,10687,11,106368,208551
2025-02-27 19:03:10.735,45457,15411,10644,0,106490,208836
2025-02-27 19:03:10.736,45549,15386,10616,4,106640,209168
2025-02-27 19:03:10.738,45655,15379,10583,3,106792,209516
2025-02-27 19:03:10.745,45807,15389,10570,3,106947,209831
2025-02-27 19:03:10.754,45980,15397,10545,5,107189,210185
2025-02-27 19:03:10.913,46160,15420,10534,6,107435,210622
2025-02-27 19:03:10.915,46290,15449,10515,0,107608,210992
2025-02-27 19:03:10.917,46377,15485,10522,1,107762,211330
2025-02-27 19:03:10.919,46452,15524,10507,1,107865,211643
2025-02-27 19:03:10.921,46535,15567,10505,4,107980,211868
2025-02-27 19:03:10.923,46575,15596,10492,0,108063,212067
2025-02-27 19:03:10.925,46620,15639,10480,0,108037,212188
2025-02-27 19:03:10.927,46619,15677,10461,0,107992,212115
2025-02-27 19:03:10.929,46668,15703,10441,1,107826,211864
2025-02-27 19:03:10.931,46768,15743,10397,3,107597,211494
2025-02-27 19:03:10.932,47126,15836,10398,0,107401,210939
2025-02-27 19:03:10.934,47591,15959,10417,6,107440,210511
2025-02-27 19:03:10.936,48052,16111,10458,1,107600,210374
2025-02-27 19:03:10.938,48344,16257,10522,3,107698,210337
2025-02-27 19:03:10.939,48372,16375,10576,4,107695,210307
2025-02-27 19:03:10.941,48171,16499,10656,4,107535,210111
2025-02-27 19:03:10.943,47765,16589,10726,7,107295,209831
2025-02-27 19:03:10.944,47272,16678,10781,3,107052,209449
2025-02-27 19:03:10.946,46918,16745,10854,5,107037,209088
2025-02-27 19:03:10.954,46731,16800,10920,4,107214,209008
2025-02-27 19:03:11.099,46605,16868,10998,3,107414,209127
2025-02-27 19:03:11.101,46528,16889,11039,0,107497,209359
2025-02-27 19:03:11.102,46380,16888,11086,12,107491,209399
2025-02-27 19:03:11.104,46236,16839,11091,9,107539,209395
2025-02-27 19:03:11.106,46191,16807,11105,4,107593,209413
2025-02-27 19:03:11.108,46231,16766,11115,0,107581,209393
2025-02-27 19:03:11.109,46294,16694,11103,5,107670,209414
2025-02-27 19:03:11.111,46392,16664,11099,5,107756,209511
2025-02-27 19:03:11.113,46457,16578,11100,8,107895,209633
2025-02-27 19:03:11.114,46386,16514,11058,2,107967,209832
2025-02-27 19:03:11.116,46328,16414,11027,12,108061,209975
2025-02-27 19:03:11.117,46297,16330,10955,0,108158,210121
2025-02-27 19:03:11.119,46279,16236,10935,11,108192,210363
2025-02-27 19:03:11.120,46239,16129,10864,6,108143,210445
2025-02-27 19:03:11.122,46253,16052,10810,10,108191,210443
2025-02-27 19:03:11.123,46278,15988,10770,9,108204,210560
2025-02-27 19:03:11.125,46310,15934,10720,8,108260,210829
2025-02-27 19:03:11.138,46352,15883,10687,0,108312,211078
2025-02-27 19:03:11.146,46442,15874,10663,18,108419,211358
2025-02-27 19:03:11.298,46492,15831,10637,0,108523,211713
2025-02-27 19:03:11.300,46567,15821,10605,10,108617,212032
2025-02-27 19:03:11.302,46648,15812,10570,0,108807,212370
2025-02-27 19:03:11.304,46783,15804,10551,1,108984,212754
2025-02-27 19:03:11.305,46874,15816,10527,3,109110,213213
2025-02-27 19:03:11.307,47004,15821,10508,9,109324,213614
2025-02-27 19:03:11.309,47122,15828,10484,1,109450,213983
2025-02-27 19:03:11.311,47245,15867,10486,8,109607,214325
2025-02-27 19:03:11.313,47333,15884,10468,5,109730,214638
2025-02-27 19:03:11.314,47420,15929,10466,2,109830,214936
2025-02-27 19:03:11.316,47451,15956,10455,7,109914,215124
2025-02-27 19:03:11.318,47497,15984,10459,8,109893,215270
2025-02-27 19:03:11.319,47484,16000,10431,0,109771,215279
2025-02-27 19:03:11.321,47434,16024,10419,12,109606,215119
2025-02-27 19:03:11.323,47371,16033,10395,6,109355,214821
2025-02-27 19:03:11.325,47338,16057,10368,7,109007,214334
2025-02-27 19:03:11.327,47395,16085,10330,4,108678,213692
2025-02-27 19:03:11.329,47836,16179,10325,9,108589,212995
2025-02-27 19:03:11.337,48542,16313,10359,5,108741,212680
2025-02-27 19:03:11.346,49277,16498,10424,5,108998,212714
2025-02-27 19:03:11.477,49674,16668,10500,5,109250,212929
2025-02-27 19:03:11.480,49584,16827,10582,0,109200,212991
2025-02-27 19:03:11.482,49127,16951,10659,7,108794,212708
2025-02-27 19:03:11.484,48548,17072,10740,3,108410,212225
2025-02-27 19:03:11.486,48026,17183,10806,0,108173,211692
2025-02-27 19:03:11.488,47700,17296,10882,10,108261,211338
2025-02-27 19:03:11.491,47483,17381,10970,3,108380,211286
2025-02-27 19:03:11.493,47357,17458,11042,6,108483,211264
2025-02-27 19:03:11.495,47216,17495,11091,0,108485,211342
2025-02-27 19:03:11.497,47123,17524,11158,2,108524,211340
2025-02-27 19:03:11.499,47044,17529,11195,6,108527,211346
2025-02-27 19:03:11.500,46990,17533,11226,2,108515,211302
2025-02-27 19:03:11.502,46887,17500,11254,0,108452,211237
2025-02-27 19:03:11.504,46752,17475,11282,3,108455,211156
2025-02-27 19:03:11.506,46660,17411,11297,9,108622,211105
2025-02-27 19:03:11.509,46686,17378,11308,5,108959,211280
2025-02-27 19:03:11.517,46736,17329,11319,3,109338,211764
2025-02-27 19:03:11.675,46832,17276,11313,0,109568,212333
2025-02-27 19:03:11.677,46805,17187,11291,6,109620,212653
2025-02-27 19:03:11.679,46760,17095,11251,4,109573,212753
2025-02-27 19:03:11.681,46706,16990,11199,3,109485,212695
2025-02-27 19:03:11.682,46671,16875,11153,12,109387,212601
2025-02-27 19:03:11.684,46647,16754,11067,1,109221,212589
2025-02-27 19:03:11.686,46634,16633,11015,0,109077,212508
2025-02-27 19:03:11.688,46621,16528,10951,0,109011,212424
2025-02-27 19:03:11.690,46645,16441,10900,1,108967,212440
2025-02-27 19:03:11.691,46645,16441,10900,1,108967,212440
2025-02-27 19:03:11.692,46700,16343,10816,0,108965,212488
2025-02-27 19:03:11.694,46728,16313,10791,2,108980,212646
2025-02-27 19:03:11.696,46760,16289,10776,0,108985,212833
2025-02-27 19:03:11.698,46792,16278,10741,3,108955,212928
2025-02-27 19:03:11.700,46840,16271,10737,7,108963,213013
2025-02-27 19:03:11.701,46890,16277,10729,6,108977,213164
2025-02-27 19:03:11.703,46948,16300,10723,7,109005,213274
2025-02-27 19:03:11.705,46993,16317,10725,1,109027,213382
2025-02-27 19:03:11.706,47095,16359,10745,7,109122,213469
2025-02-27 19:03:11.710,47174,16392,10751,10,109205,213618
2025-02-27 19:03:11.717,47259,16441,10768,1,109271,213770
2025-02-27 19:03:11.856,47309,16477,10778,0,109194,213838
2025-02-27 19:03:11.858,47337,16518,10766,0,109004,213656
2025-02-27 19:03:11.860,47406,16572,10753,0,108781,213240
2025-02-27 19:03:11.862,47618,16655,10748,6,108591,212681
2025-02-27 19:03:11.864,47940,16757,10768,7,108586,212258
2025-02-27 19:03:11.866,48252,16885,10812,9,108651,212064
2025-02-27 19:03:11.868,48385,17013,10865,2,108755,211977
2025-02-27 19:03:11.870,48342,17125,10917,4,108702,211951
2025-02-27 19:03:11.872,48117,17191,10955,3,108458,211803
2025-02-27 19:03:11.874,47824,17273,10990,0,108292,211496
2025-02-27 19:03:11.875,47628,17352,11063,1,108318,211265
2025-02-27 19:03:11.877,47500,17423,11119,8,108434,211253
2025-02-27 19:03:11.879,47375,17496,11192,1,108572,211352
2025-02-27 19:03:11.881,47231,17545,11230,1,108697,211450
2025-02-27 19:03:11.883,47110,17573,11276,4,108680,211525
2025-02-27 19:03:11.885,46998,17562,11304,7,108719,211478
2025-02-27 19:03:11.890,46938,17524,11313,3,108841,211522
2025-02-27 19:03:11.901,46909,17503,11333,5,109137,211669
2025-02-27 19:03:12.067,46859,17413,11324,9,109408,212054
2025-02-27 19:03:12.069,46813,17332,11295,7,109548,212367
2025-02-27 19:03:12.071,46791,17238,11254,1,109544,212585
2025-02-27 19:03:12.073,46775,17130,11197,0,109474,212597
2025-02-27 19:03:12.075,46741,17002,11154,2,109337,212571
2025-02-27 19:03:12.077,46768,16877,11082,4,109178,212469
2025-02-27 19:03:12.079,46758,16740,10995,5,108991,212341
2025-02-27 19:03:12.081,46783,16637,10923,5,108895,212100
2025-02-27 19:03:12.083,46818,16548,10877,0,108871,212102
2025-02-27 19:03:12.084,46880,16463,10831,12,108950,212224
2025-02-27 19:03:12.086,46954,16443,10787,2,109025,212508
2025-02-27 19:03:12.087,47009,16406,10768,11,109121,212756
2025-02-27 19:03:12.089,47105,16389,10754,10,109221,213063
2025-02-27 19:03:12.091,47180,16384,10746,1,109331,213387
2025-02-27 19:03:12.092,47243,16381,10743,6,109412,213705
2025-02-27 19:03:12.094,47327,16390,10701,4,109506,213937
2025-02-27 19:03:12.095,47390,16386,10720,1,109562,214131
2025-02-27 19:03:12.097,47453,16405,10708,9,109627,214361
2025-02-27 19:03:12.099,47528,16426,10710,16,109753,214547
2025-02-27 19:03:12.102,47603,16445,10715,17,109883,214722
2025-02-27 19:03:12.113,47689,16480,10712,0,109975,214918
2025-02-27 19:03:12.246,47776,16513,10723,6,110069,215066
2025-02-27 19:03:12.248,47875,16544,10730,11,110160,215203
2025-02-27 19:03:12.250,47968,16581,10746,1,110248,215346
2025-02-27 19:03:12.252,48037,16629,10745,0,110285,215422
2025-02-27 19:03:12.253,48117,16679,10757,0,110304,215413
2025-02-27 19:03:12.255,48193,16717,10760,0,110200,215360
2025-02-27 19:03:12.257,48284,16777,10760,4,110049,215149
2025-02-27 19:03:12.259,48448,16853,10763,0,109874,214762
2025-02-27 19:03:12.261,48690,16943,10775,2,109763,214339
2025-02-27 19:03:12.262,48934,17068,10823,10,109696,214029
2025-02-27 19:03:12.264,49052,17207,10876,9,109669,213813
2025-02-27 19:03:12.265,48976,17338,10939,2,109532,213648
2025-02-27 19:03:12.267,48665,17460,11007,6,109319,213399
2025-02-27 19:03:12.269,48289,17567,11051,8,109096,213099
2025-02-27 19:03:12.270,47901,17645,11113,6,108984,212688
2025-02-27 19:03:12.273,47659,17750,11179,3,109158,212446
2025-02-27 19:03:12.282,47489,17831,11246,2,109331,212477
2025-02-27 19:03:12.294,47371,17892,11305,1,109472,212593
2025-02-27 19:03:12.452,47270,17909,11351,1,109415,212703
2025-02-27 19:03:12.454,47193,17911,11385,8,109374,212669
2025-02-27 19:03:12.456,47119,17899,11411,7,109283,212533
2025-02-27 19:03:12.458,47047,17904,11446,2,109247,212506
2025-02-27 19:03:12.460,46968,17890,11466,2,109258,212426
2025-02-27 19:03:12.461,46978,17882,11483,0,109353,212438
2025-02-27 19:03:12.463,46987,17848,11492,3,109574,212602
2025-02-27 19:03:12.465,46959,17821,11506,6,109784,212873
2025-02-27 19:03:12.467,46915,17800,11516,0,109920,213189
2025-02-27 19:03:12.468,46893,17776,11506,3,110050,213387
2025-02-27 19:03:12.470,46868,17724,11502,5,110125,213524
2025-02-27 19:03:12.472,46872,17666,11481,0,110255,213652
2025-02-27 19:03:12.473,46872,17666,11481,0,110255,213652
2025-02-27 19:03:12.475,46816,17440,11372,2,110231,213869
2025-02-27 19:03:12.477,46755,17303,11293,5,110037,213812
2025-02-27 19:03:12.478,46737,17150,11216,5,109845,213681
2025-02-27 19:03:12.480,46735,17009,11129,0,109706,213538
2025-02-27 19:03:12.482,46766,16884,11038,2,109560,213299
2025-02-27 19:03:12.484,46796,16787,10960,7,109510,213293
2025-02-27 19:03:12.487,46861,16713,10920,0,109524,213415
2025-02-27 19:03:12.493,46931,16660,10886,0,109534,213606
2025-02-27 19:03:12.635,47012,16629,10858,5,109597,213843
2025-02-27 19:03:12.637,47115,16607,10833,13,109694,214113
2025-02-27 19:03:12.639,47216,16602,10809,0,109807,214436
2025-02-27 19:03:12.641,47311,16606,10794,3,109918,214763
2025-02-27 19:03:12.643,47429,16624,10789,5,110059,214987
2025-02-27 19:03:12.646,47543,16639,10782,3,110196,215252
2025-02-27 19:03:12.648,47668,16668,10790,4,110305,215479
2025-02-27 19:03:12.650,47772,16692,10776,4,110392,215646
2025-02-27 19:03:12.651,47875,16723,10796,0,110459,215786
2025-02-27 19:03:12.653,47930,16740,10780,0,110432,215884
2025-02-27 19:03:12.655,47986,16759,10766,3,110338,215831
2025-02-27 19:03:12.656,48060,16781,10757,0,110208,215675
2025-02-27 19:03:12.658,48190,16819,10739,3,110124,215414
2025-02-27 19:03:12.660,48431,16866,10729,0,109981,215182
2025-02-27 19:03:12.661,48803,16934,10736,2,110019,214917
2025-02-27 19:03:12.663,49248,17030,10750,2,110158,214820
2025-02-27 19:03:12.665,49699,17143,10785,1,110286,214851
2025-02-27 19:03:12.675,50077,17255,10846,0,110470,214954
2025-02-27 19:03:12.856,50371,17373,10898,5,110629,215119
2025-02-27 19:03:12.859,50454,17489,10965,0,110762,215214
2025-02-27 19:03:12.861,50371,17604,11032,11,110803,215196
2025-02-27 19:03:12.863,50142,17701,11094,0,110741,215173
2025-02-27 19:03:12.866,49802,17796,11152,5,110589,215010
2025-02-27 19:03:12.868,49368,17863,11198,4,110351,214757
2025-02-27 19:03:12.870,48927,17945,11253,1,110191,214415
2025-02-27 19:03:12.872,48575,17992,11284,4,110210,214113
2025-02-27 19:03:12.875,48386,18053,11337,8,110345,214093
2025-02-27 19:03:12.878,48294,18100,11373,2,110568,214231
2025-02-27 19:03:12.880,48190,18149,11412,6,110694,214410
2025-02-27 19:03:12.882,48038,18144,11437,5,110759,214571
2025-02-27 19:03:12.884,47934,18130,11458,3,110885,214686
2025-02-27 19:03:12.887,47838,18101,11455,2,111055,214858
2025-02-27 19:03:12.889,47803,18046,11458,5,111275,215052
2025-02-27 19:03:12.891,47815,17982,11445,5,111446,215317
2025-02-27 19:03:12.893,47919,17906,11432,11,111541,215538
2025-02-27 19:03:12.895,48075,17801,11389,7,111471,215695
2025-02-27 19:03:12.898,48183,17679,11319,3,111221,215622
2025-02-27 19:03:12.901,48104,17525,11241,0,110843,215304
2025-02-27 19:03:12.905,48006,17388,11164,4,110543,214974
2025-02-27 19:03:13.050,47930,17240,11091,8,110237,214623
2025-02-27 19:03:13.052,47924,17131,11024,12,110053,214358
2025-02-27 19:03:13.054,47917,17028,10965,4,109910,214326
2025-02-27 19:03:13.056,47959,16951,10912,7,109897,214413
2025-02-27 19:03:13.057,47990,16851,10866,5,109959,214588
2025-02-27 19:03:13.059,48036,16771,10805,5,110031,214819
2025-02-27 19:03:13.061,48060,16725,10757,6,110056,215072
2025-02-27 19:03:13.063,48122,16663,10709,0,110143,215241
2025-02-27 19:03:13.065,48212,16623,10681,3,110332,215462
2025-02-27 19:03:13.066,48326,16625,10659,7,110539,215767
2025-02-27 19:03:13.068,48469,16608,10636,4,110774,216116
2025-02-27 19:03:13.069,48638,16632,10617,0,111030,216468
2025-02-27 19:03:13.071,48812,16640,10626,9,111261,216873
2025-02-27 19:03:13.073,48991,16678,10598,0,111481,217251
2025-02-27 19:03:13.075,49168,16702,10631,4,111663,217599
2025-02-27 19:03:13.076,49360,16743,10634,3,111845,217924
2025-02-27 19:03:13.078,49550,16787,10648,0,112053,218229
2025-02-27 19:03:13.080,49719,16833,10665,11,112177,218562
2025-02-27 19:03:13.081,49847,16891,10669,0,112218,218727
2025-02-27 19:03:13.085,49959,16937,10683,0,112154,218816
2025-02-27 19:03:13.097,50072,16970,10683,10,112026,218683
2025-02-27 19:03:13.244,50241,17029,10686,0,111775,218376
2025-02-27 19:03:13.246,50500,17110,10677,4,111590,217941
2025-02-27 19:03:13.247,50922,17229,10714,1,111504,217419
2025-02-27 19:03:13.249,51376,17376,10761,6,111451,217046
2025-02-27 19:03:13.251,51833,17566,10835,5,111548,216847
2025-02-27 19:03:13.253,52111,17738,10925,2,111592,216828
2025-02-27 19:03:13.254,52155,17906,11025,0,111523,216820
2025-02-27 19:03:13.256,51858,18048,11114,6,111245,216703
2025-02-27 19:03:13.257,51392,18187,11221,6,110967,216482
2025-02-27 19:03:13.259,50790,18311,11287,4,110778,216098
2025-02-27 19:03:13.260,50164,18415,11355,3,110819,215782
2025-02-27 19:03:13.261,49701,18495,11402,3,110759,215611
2025-02-27 19:03:13.263,49356,18554,11456,5,110728,215495
2025-02-27 19:03:13.264,49046,18590,11497,2,110636,215367
2025-02-27 19:03:13.266,48829,18589,11533,1,110597,215215
2025-02-27 19:03:13.267,48671,18585,11569,4,110625,215124
2025-02-27 19:03:13.269,48542,18573,11603,0,110732,215151
2025-02-27 19:03:13.277,48449,18533,11619,5,110951,215265
2025-02-27 19:03:13.290,48413,18458,11621,0,111263,215563
2025-02-27 19:03:13.423,48445,18351,11604,2,111457,215924
2025-02-27 19:03:13.425,48571,18232,11574,2,111587,216227
2025-02-27 19:03:13.427,48711,18057,11501,3,111481,216367
2025-02-27 19:03:13.429,48695,17871,11397,5,111077,216205
2025-02-27 19:03:13.431,48549,17667,11283,3,110661,215705
2025-02-27 19:03:13.433,48486,17495,11201,0,110440,215223
2025-02-27 19:03:13.434,48455,17327,11095,8,110287,214909
2025-02-27 19:03:13.436,48495,17217,11034,9,110283,214804
2025-02-27 19:03:13.438,48541,17122,10984,6,110385,214940
2025-02-27 19:03:13.440,48634,17071,10948,8,110502,215230
2025-02-27 19:03:13.441,48727,17030,10918,5,110687,215616
2025-02-27 19:03:13.443,48844,16999,10895,1,110868,216036
2025-02-27 19:03:13.446,48925,16959,10872,5,110995,216444
2025-02-27 19:03:13.448,48925,16959,10872,5,110995,216444
2025-02-27 19:03:13.450,49164,16919,10827,0,111340,217100
2025-02-27 19:03:13.452,49319,16923,10808,5,111547,217426
2025-02-27 19:03:13.454,49466,16931,10803,9,111749,217748
2025-02-27 19:03:13.461,49679,16948,10800,8,111987,218107
2025-02-27 19:03:13.470,49852,16961,10801,10,112204,218438
2025-02-27 19:03:13.637,50074,17003,10808,5,112427,218807
2025-02-27 19:03:13.640,50285,17025,10815,2,112616,219190
2025-02-27 19:03:13.642,50528,17077,10831,5,112836,219547
2025-02-27 19:03:13.643,50731,17115,10851,0,113038,219901
2025-02-27 19:03:13.645,50956,17185,10884,4,113226,220222
2025-02-27 19:03:13.647,51140,17249,10920,0,113399,220571
2025-02-27 19:03:13.649,51288,17316,10952,3,113453,220797
2025-02-27 19:03:13.651,51404,17402,10972,0,113454,220872
2025-02-27 19:03:13.652,51522,17501,11007,7,113398,220796
2025-02-27 19:03:13.654,51611,17603,11032,3,113262,220537
2025-02-27 19:03:13.655,51778,17741,11063,9,113187,220145
2025-02-27 19:03:13.657,51977,17883,11074,2,113178,219831
2025-02-27 19:03:13.658,52276,18038,11126,0,113296,219700
2025-02-27 19:03:13.660,52555,18180,11179,7,113407,219696
2025-02-27 19:03:13.661,52624,18323,11252,1,113397,219827
2025-02-27 19:03:13.663,52284,18402,11307,0,113242,219698
2025-02-27 19:03:13.665,51795,18494,11370,1,113191,219320
2025-02-27 19:03:13.666,51330,18554,11421,7,113057,219024
2025-02-27 19:03:13.668,50900,18613,11470,8,112906,218738
2025-02-27 19:03:13.670,50466,18654,11501,0,112830,218494
2025-02-27 19:03:13.682,50122,18685,11531,0,112642,218194
2025-02-27 19:03:13.822,49902,18727,11566,12,112501,217933
2025-02-27 19:03:13.824,49702,18771,11607,8,112456,217761
2025-02-27 19:03:13.826,49542,18817,11639,1,112399,217670
2025-02-27 19:03:13.828,49387,18862,11690,4,112359,217575
2025-02-27 19:03:13.830,49229,18890,11717,6,112272,217482
2025-02-27 19:03:13.832,49113,18924,11755,7,112243,217402
2025-02-27 19:03:13.834,48998,18930,11779,3,112221,217319
2025-02-27 19:03:13.836,48841,18921,11798,14,112200,217248
2025-02-27 19:03:13.838,48714,18912,11809,4,112245,217154
2025-02-27 19:03:13.839,48625,18876,11848,8,112380,217178
2025-02-27 19:03:13.841,48505,18834,11852,0,112590,217357
2025-02-27 19:03:13.842,48478,18792,11864,5,112906,217618
2025-02-27 19:03:13.844,48437,18704,11856,7,113134,218043
2025-02-27 19:03:13.845,48456,18585,11820,3,113224,218289
2025-02-27 19:03:13.847,48519,18441,11762,9,113093,218367
2025-02-27 19:03:13.848,48673,18256,11671,3,112804,218208
2025-02-27 19:03:13.853,48807,18046,11550,0,112286,217838
2025-02-27 19:03:13.861,48760,17822,11424,12,111644,217195
2025-02-27 19:03:14.029,48720,17608,11292,7,111127,216543
2025-02-27 19:03:14.031,48715,17426,11178,1,110795,215946
2025-02-27 19:03:14.033,48725,17270,11125,3,110707,215681
2025-02-27 19:03:14.035,48827,17193,11065,7,110766,215817
2025-02-27 19:03:14.037,48912,17124,11024,8,110862,216140
2025-02-27 19:03:14.038,49002,17074,10991,0,110984,216544
2025-02-27 19:03:14.040,49084,17023,10956,0,111082,216916
2025-02-27 19:03:14.042,49177,16986,10936,6,111223,217210
2025-02-27 19:03:14.044,49284,16996,10901,0,111423,217502
2025-02-27 19:03:14.046,49426,16976,10886,11,111642,217848
2025-02-27 19:03:14.047,49578,16982,10880,7,111874,218205
2025-02-27 19:03:14.049,49755,17024,10887,0,112075,218520
2025-02-27 19:03:14.050,49893,17030,10869,9,112224,218848
2025-02-27 19:03:14.052,50039,17089,10885,8,112290,219052
2025-02-27 19:03:14.054,50196,17112,10907,6,112375,219143
2025-02-27 19:03:14.056,50368,17165,10927,3,112488,219264
2025-02-27 19:03:14.058,50539,17226,10938,14,112561,219392
2025-02-27 19:03:14.059,50716,17312,10979,7,112614,219474
2025-02-27 19:03:14.062,50876,17396,11011,0,112597,219456
2025-02-27 19:03:14.065,51063,17506,11054,23,112564,219332
2025-02-27 19:03:14.073,51344,17677,11093,5,112697,219015
2025-02-27 19:03:14.210,51711,17878,11184,0,113026,218939
2025-02-27 19:03:14.211,52037,18094,11283,1,113427,219167
2025-02-27 19:03:14.213,52281,18338,11407,3,113794,219464
2025-02-27 19:03:14.215,52241,18577,11533,0,114048,219818
2025-02-27 19:03:14.217,51886,18728,11618,2,114092,220052
2025-02-27 19:03:14.218,51292,18879,11690,0,114097,220048
2025-02-27 19:03:14.220,50647,18996,11758,9,114076,219897
2025-02-27 19:03:14.222,50194,19092,11822,0,114017,219800
2025-02-27 19:03:14.224,49861,19167,11880,10,113891,219666
2025-02-27 19:03:14.226,49566,19187,11904,2,113675,219482
2025-02-27 19:03:14.227,49342,19181,11928,6,113431,219186
2025-02-27 19:03:14.229,49173,19169,11940,9,113172,218799
2025-02-27 19:03:14.231,49017,19142,11959,0,112997,218414
2025-02-27 19:03:14.233,48880,19092,11963,0,112925,218112
2025-02-27 19:03:14.234,48788,19030,11982,0,113046,217964
2025-02-27 19:03:14.236,48757,18951,11979,0,113394,218047
2025-02-27 19:03:14.245,48768,18862,11984,0,113836,218484
2025-02-27 19:03:14.254,48773,18747,11956,6,114050,219043
2025-02-27 19:03:14.410,48783,18615,11913,0,114069,219288
2025-02-27 19:03:14.412,48832,18450,11836,1,113889,219337
2025-02-27 19:03:14.414,49025,18308,11768,9,113672,219141
2025-02-27 19:03:14.416,49088,18136,11663,2,113216,218889
2025-02-27 19:03:14.417,48980,17937,11542,0,112654,218240
2025-02-27 19:03:14.419,48881,17742,11426,0,112107,217650
2025-02-27 19:03:14.421,48803,17575,11333,0,111720,217016
2025-02-27 19:03:14.422,48760,17421,11231,2,111376,216521
2025-02-27 19:03:14.424,48729,17292,11154,9,111234,216336
2025-02-27 19:03:14.426,48708,17197,11087,0,111116,216346
2025-02-27 19:03:14.427,48729,17123,11039,0,111102,216354
2025-02-27 19:03:14.428,48805,17075,11005,11,111162,216517
2025-02-27 19:03:14.430,48893,17055,10986,0,111288,216763
2025-02-27 19:03:14.432,49006,17031,10963,8,111427,217051
2025-02-27 19:03:14.434,49144,17030,10945,6,111585,217341
2025-02-27 19:03:14.435,49264,17022,10935,0,111770,217676
2025-02-27 19:03:14.437,49437,17032,10930,0,111934,218034
2025-02-27 19:03:14.439,49437,17032,10930,0,111934,218034
2025-02-27 19:03:14.441,49796,17074,10940,4,112282,218611
2025-02-27 19:03:14.445,49988,17103,10941,4,112420,218909
2025-02-27 19:03:14.458,50199,17153,10952,4,112565,219153
2025-02-27 19:03:14.590,50409,17197,10968,3,112702,219340
2025-02-27 19:03:14.592,50628,17247,10998,7,112772,219543
2025-02-27 19:03:14.594,50836,17297,11002,1,112853,219672
2025-02-27 19:03:14.596,51019,17367,11029,7,112843,219697
2025-02-27 19:03:14.598,51190,17458,11053,1,112815,219662
2025-02-27 19:03:14.599,51407,17563,11073,8,112742,219445
2025-02-27 19:03:14.601,51680,17703,11109,3,112775,219077
2025-02-27 19:03:14.603,52007,17902,11167,6,112997,218879
2025-02-27 19:03:14.604,52313,18107,11262,1,113289,218986
2025-02-27 19:03:14.606,52507,18344,11362,0,113523,219142
2025-02-27 19:03:14.607,52355,18573,11480,7,113648,219285
2025-02-27 19:03:14.609,51948,18754,11584,2,113928,219561
2025-02-27 19:03:14.610,51364,18916,11662,5,114130,219762
2025-02-27 19:03:14.612,50709,19047,11734,5,114113,219887
2025-02-27 19:03:14.614,50194,19141,11795,11,114085,219810
2025-02-27 19:03:14.616,49813,19238,11872,0,114137,219779
2025-02-27 19:03:14.625,49510,19300,11929,6,114037,219801
2025-02-27 19:03:14.638,49236,19343,11979,6,113919,219688
2025-02-27 19:03:14.789,49031,19350,12003,8,113739,219491
2025-02-27 19:03:14.791,48838,19314,12015,4,113483,219124
2025-02-27 19:03:14.793,48753,19272,12032,8,113455,218798
2025-02-27 19:03:14.820,48703,19221,12061,6,113553,218722
2025-02-27 19:03:14.822,48711,19143,12061,3,113842,218765
2025-02-27 19:03:14.824,48755,19051,12051,7,114222,219094
2025-02-27 19:03:14.827,48783,18921,12042,0,114368,219535
2025-02-27 19:03:14.830,48803,18779,12005,1,114326,219688
2025-02-27 19:03:14.832,48855,18579,11916,10,114098,219584
2025-02-27 19:03:14.834,48878,18327,11811,3,113637,219160
2025-02-27 19:03:14.836,48731,18085,11663,9,112997,218566
2025-02-27 19:03:14.838,48602,17828,11513,4,112383,217770
2025-02-27 19:03:14.983,48487,17611,11387,0,111784,217068
2025-02-27 19:03:14.985,48411,17403,11257,3,111295,216402
2025-02-27 19:03:14.987,48402,17258,11174,11,110983,216020
2025-02-27 19:03:14.990,48402,17169,11121,8,110876,215890
2025-02-27 19:03:14.992,48487,17119,11091,3,110858,215980
2025-02-27 19:03:14.994,48543,17080,11060,0,110863,216190
2025-02-27 19:03:14.996,48633,17054,11032,5,110905,216383
2025-02-27 19:03:14.998,48730,17039,11029,15,111044,216611
2025-02-27 19:03:15.000,48884,17041,10999,9,111166,216860
2025-02-27 19:03:15.002,49008,17034,10983,4,111330,217143
2025-02-27 19:03:15.004,49159,17053,10999,7,111509,217380
2025-02-27 19:03:15.006,49386,17079,10996,6,111708,217640
2025-02-27 19:03:15.007,49572,17141,11029,3,111901,217892
2025-02-27 19:03:15.009,49788,17193,11025,0,111998,218125
2025-02-27 19:03:15.011,50023,17281,11040,0,112047,218194
2025-02-27 19:03:15.013,50351,17374,11046,2,112181,218092
2025-02-27 19:03:15.015,50852,17601,11090,1,112489,218018
2025-02-27 19:03:15.016,51354,17810,11168,0,113032,218209
2025-02-27 19:03:15.018,51777,18085,11270,13,113688,218727
2025-02-27 19:03:15.020,51976,18337,11399,8,114222,219232
2025-02-27 19:03:15.023,51835,18544,11485,3,114433,219905
2025-02-27 19:03:15.026,51371,18664,11537,7,114310,219983
2025-02-27 19:03:15.029,50956,18740,11576,7,114116,219860
2025-02-27 19:03:15.031,50615,18774,11590,0,113866,219542
2025-02-27 19:03:15.192,50352,18786,11614,9,113606,219176
2025-02-27 19:03:15.194,50162,18791,11628,0,113458,218760
2025-02-27 19:03:15.195,50019,18802,11653,5,113410,218520
2025-02-27 19:03:15.197,49919,18794,11683,5,113472,218403
2025-02-27 19:03:15.199,49837,18790,11711,0,113768,218465
2025-02-27 19:03:15.201,49763,18756,11731,9,114004,218833
2025-02-27 19:03:15.203,49742,18663,11747,11,114369,219141
2025-02-27 19:03:15.205,49702,18605,11732,6,114447,219417
2025-02-27 19:03:15.206,49645,18494,11691,12,114339,219463
2025-02-27 19:03:15.208,49577,18384,11655,0,114080,219262
2025-02-27 19:03:15.209,49523,18269,11610,4,113724,218899
2025-02-27 19:03:15.211,49469,18139,11542,2,113298,218477
2025-02-27 19:03:15.212,49452,18020,11464,4,112935,217990
2025-02-27 19:03:15.214,49441,17856,11367,1,112486,217572
2025-02-27 19:03:15.215,49485,17693,11261,5,112133,217170
2025-02-27 19:03:15.217,49545,17556,11171,0,111840,216988
2025-02-27 19:03:15.219,49615,17449,11108,4,111680,216820
2025-02-27 19:03:15.220,49711,17383,11060,7,111515,216745
2025-02-27 19:03:15.222,49844,17362,11027,7,111453,216772
2025-02-27 19:03:15.224,49997,17353,11009,4,111478,216802
2025-02-27 19:03:15.227,50197,17379,10999,2,111597,216961
2025-02-27 19:03:15.230,50420,17414,11000,3,111768,217177
2025-02-27 19:03:15.232,50640,17474,11002,3,111965,217455
2025-02-27 19:03:15.389,50876,17552,11034,10,112205,217732
2025-02-27 19:03:15.391,51120,17660,11054,8,112478,218151
2025-02-27 19:03:15.393,51330,17766,11081,0,112725,218514
2025-02-27 19:03:15.395,51549,17929,11131,5,113036,218788
2025-02-27 19:03:15.396,51763,18114,11197,4,113551,219041
2025-02-27 19:03:15.398,51971,18370,11309,0,114300,219379
2025-02-27 19:03:15.400,52027,18622,11446,2,114696,220109
2025-02-27 19:03:15.402,51741,18762,11523,4,114678,220562
2025-02-27 19:03:15.404,51222,18767,11554,0,114537,220599
2025-02-27 19:03:15.405,50718,18702,11550,1,114420,220384
2025-02-27 19:03:15.407,50376,18582,11548,9,114379,220140
2025-02-27 19:03:15.409,50224,18444,11525,8,114253,219980
2025-02-27 19:03:15.410,50227,18279,11486,4,114011,219628
2025-02-27 19:03:15.412,50403,18080,11430,3,113678,219222
2025-02-27 19:03:15.414,50755,17863,11351,0,113207,218693
2025-02-27 19:03:15.416,50824,17646,11241,0,112554,218144
2025-02-27 19:03:15.418,50764,17444,11142,4,112061,217345
2025-02-27 19:03:15.421,50806,17301,11081,2,111812,216865
2025-02-27 19:03:15.424,50846,17229,11034,5,111759,216859
2025-02-27 19:03:15.433,50981,17215,11032,0,111881,217065
2025-02-27 19:03:15.437,50981,17215,11032,0,111881,217065
2025-02-27 19:03:15.593,51267,17231,11032,8,112241,218023
2025-02-27 19:03:15.595,51419,17245,11022,2,112369,218346
2025-02-27 19:03:15.597,51593,17276,11027,2,112504,218608
2025-02-27 19:03:15.599,51743,17290,11032,5,112636,218827
2025-02-27 19:03:15.601,51893,17342,11040,0,112759,219047
2025-02-27 19:03:15.603,52039,17382,11035,6,112896,219183
2025-02-27 19:03:15.604,52223,17447,11057,3,113062,219414
2025-02-27 19:03:15.606,52364,17513,11067,5,113198,219561
2025-02-27 19:03:15.608,52529,17619,11076,0,113331,219676
2025-02-27 19:03:15.609,52701,17738,11118,7,113530,219711
2025-02-27 19:03:15.610,52916,17900,11183,0,113831,219791
2025-02-27 19:03:15.612,53138,18101,11263,1,114417,219999
2025-02-27 19:03:15.614,53355,18347,11386,6,115030,220559
2025-02-27 19:03:15.615,53444,18550,11512,6,115410,221164
2025-02-27 19:03:15.617,53236,18685,11602,4,115522,221767
2025-02-27 19:03:15.618,52887,18754,11655,13,115473,222075
2025-02-27 19:03:15.620,52480,18750,11675,8,115336,222045
2025-02-27 19:03:15.622,52203,18673,11686,0,115370,221818
2025-02-27 19:03:15.623,52073,18578,11692,8,115530,221698
2025-02-27 19:03:15.634,52027,18417,11678,8,115594,221692
2025-02-27 19:03:15.642,52095,18236,11625,2,115418,221656
2025-02-27 19:03:15.776,52264,18012,11533,3,115053,221389
2025-02-27 19:03:15.778,52595,17791,11424,0,114537,221033
2025-02-27 19:03:15.780,52580,17531,11299,3,113884,220593
2025-02-27 19:03:15.782,52559,17327,11191,5,113521,220061
2025-02-27 19:03:15.784,52571,17201,11126,2,113356,219936
2025-02-27 19:03:15.786,52611,17124,11075,0,113293,220070
2025-02-27 19:03:15.788,52665,17082,11038,0,113383,220274
2025-02-27 19:03:15.790,52836,17061,11013,5,113556,220568
2025-02-27 19:03:15.792,53036,17041,10981,0,113666,221002
2025-02-27 19:03:15.793,53304,17024,10959,4,113744,221312
2025-02-27 19:03:15.795,53545,17009,10920,6,113863,221572
2025-02-27 19:03:15.796,53864,16982,10895,13,113969,221837
2025-02-27 19:03:15.798,54117,16993,10866,9,114081,222132
2025-02-27 19:03:15.800,54423,17002,10847,4,114251,222424
2025-02-27 19:03:15.802,54712,17013,10836,1,114429,222700
2025-02-27 19:03:15.806,55000,17040,10829,7,114565,222957
2025-02-27 19:03:15.814,55223,17094,10822,7,114681,223209
2025-02-27 19:03:15.990,55399,17161,10813,9,114753,223403
2025-02-27 19:03:15.992,55526,17239,10817,5,114795,223507
2025-02-27 19:03:15.993,55713,17375,10837,2,114921,223480
2025-02-27 19:03:15.995,55912,17568,10910,0,115141,223503
2025-02-27 19:03:15.997,56183,17809,11008,0,115592,223724
2025-02-27 19:03:15.998,56425,18090,11147,2,116241,224087
2025-02-27 19:03:16.000,56612,18363,11296,8,117239,224764
2025-02-27 19:03:16.002,56708,18743,11485,9,118244,225660
2025-02-27 19:03:16.004,56536,18964,11623,7,118569,226626
2025-02-27 19:03:16.006,55913,19110,11706,1,118542,227058
2025-02-27 19:03:16.007,55217,19186,11771,8,118315,226935
2025-02-27 19:03:16.009,54505,19196,11747,5,117904,226552
2025-02-27 19:03:16.011,53858,19135,11786,23,117485,225847
2025-02-27 19:03:16.012,53399,19037,11747,4,117218,225166
2025-02-27 19:03:16.014,53180,18916,11729,6,117083,224629
2025-02-27 19:03:16.015,53161,18767,11689,12,116987,224273
2025-02-27 19:03:16.017,53300,18606,11673,0,116859,224010
2025-02-27 19:03:16.019,53513,18421,11597,12,116574,223804
2025-02-27 19:03:16.020,53709,18235,11515,0,116062,223443
2025-02-27 19:03:16.023,53843,18011,11414,0,115486,222938
2025-02-27 19:03:16.026,53899,17807,11311,6,114960,222466
2025-02-27 19:03:16.034,53894,17614,11198,0,114502,222121
2025-02-27 19:03:16.179,53920,17467,11134,13,114225,221824
2025-02-27 19:03:16.181,53970,17339,11067,0,114127,221882
2025-02-27 19:03:16.183,54074,17248,11012,5,114116,222092
2025-02-27 19:03:16.185,54199,17188,10974,3,114187,222363
2025-02-27 19:03:16.187,54360,17136,10937,6,114324,222664
2025-02-27 19:03:16.189,54553,17120,10903,3,114420,222997
2025-02-27 19:03:16.191,54820,17109,10881,9,114577,223238
2025-02-27 19:03:16.193,55073,17126,10886,3,114774,223540
2025-02-27 19:03:16.195,55350,17165,10893,1,114959,223881
2025-02-27 19:03:16.197,55606,17215,10912,4,115168,224153
2025-02-27 19:03:16.199,55866,17306,10948,0,115429,224509
2025-02-27 19:03:16.201,56115,17413,10992,7,115710,224889
2025-02-27 19:03:16.202,56342,17534,11046,0,115945,225320
2025-02-27 19:03:16.204,56457,17708,11085,5,116079,225601
2025-02-27 19:03:16.206,56530,17896,11135,3,116154,225617
2025-02-27 19:03:16.208,56542,18082,11196,5,116276,225575
2025-02-27 19:03:16.210,56591,18336,11281,1,116595,225441
2025-02-27 19:03:16.218,56595,18581,11393,10,117261,225660
2025-02-27 19:03:16.226,56570,18880,11523,0,117961,226048
2025-02-27 19:03:16.392,56314,19052,11624,6,118154,226805
2025-02-27 19:03:16.394,55810,19165,11701,3,118240,227009
2025-02-27 19:03:16.396,55273,19184,11727,0,118276,227023
2025-02-27 19:03:16.398,54918,19160,11752,7,118300,226947
2025-02-27 19:03:16.399,54685,19080,11759,3,118310,226816
2025-02-27 19:03:16.401,54659,18963,11749,0,118310,226725
2025-02-27 19:03:16.403,54719,18801,11717,11,118167,226586
2025-02-27 19:03:16.405,54913,18641,11667,0,117940,226372
2025-02-27 19:03:16.406,55251,18450,11597,6,117573,226083
2025-02-27 19:03:16.408,55487,18211,11479,8,116845,225759
2025-02-27 19:03:16.409,55517,17972,11354,0,116122,224980
2025-02-27 19:03:16.411,55533,17760,11251,5,115572,224282
2025-02-27 19:03:16.413,55551,17605,11158,8,115162,223801
2025-02-27 19:03:16.414,55615,17502,11104,8,114939,223531
2025-02-27 19:03:16.416,55701,17449,11070,0,114921,223491
2025-02-27 19:03:16.418,55856,17448,11050,1,115021,223650
2025-02-27 19:03:16.419,56012,17436,11043,0,115122,223837
2025-02-27 19:03:16.421,56223,17478,11041,5,115297,224050
2025-02-27 19:03:16.423,56415,17494,11045,5,115498,224317
2025-02-27 19:03:16.426,56623,17515,11044,1,115643,224549
2025-02-27 19:03:16.437,56781,17525,11033,14,115760,224788
2025-02-27 19:03:16.441,56781,17525,11033,14,115760,224788
2025-02-27 19:03:16.576,57072,17554,11029,3,115928,225042
2025-02-27 19:03:16.578,57252,17573,11041,3,116006,225199
2025-02-27 19:03:16.580,57371,17608,11044,4,116067,225369
2025-02-27 19:03:16.582,57482,17640,11056,7,116179,225480
2025-02-27 19:03:16.584,57603,17688,11078,14,116266,225630
2025-02-27 19:03:16.587,57736,17774,11109,1,116416,225800
2025-02-27 19:03:16.589,57840,17894,11159,3,116611,226054
2025-02-27 19:03:16.591,57942,18065,11252,6,116910,226295
2025-02-27 19:03:16.593,57953,18304,11357,2,117187,226614
2025-02-27 19:03:16.594,57899,18550,11476,7,117594,226742
2025-02-27 19:03:16.596,57615,18835,11602,10,118020,227222
2025-02-27 19:03:16.597,57105,19079,11711,8,118281,227668
2025-02-27 19:03:16.599,56431,19284,11789,0,118607,227748
2025-02-27 19:03:16.601,55655,19457,11867,9,118654,227831
2025-02-27 19:03:16.603,54870,19535,11916,8,118535,227755
2025-02-27 19:03:16.604,54015,19552,11935,4,118208,227479
2025-02-27 19:03:16.609,53290,19529,11941,2,117882,226925
2025-02-27 19:03:16.617,52827,19538,11960,8,117605,226258
2025-02-27 19:03:16.781,52559,19536,11981,3,117467,225854
2025-02-27 19:03:16.783,52413,19558,12019,7,117455,225616
2025-02-27 19:03:16.785,52362,19585,12062,1,117524,225538
2025-02-27 19:03:16.787,52365,19585,12096,12,117523,225585
2025-02-27 19:03:16.789,52360,19552,12118,0,117490,225596
2025-02-27 19:03:16.791,52342,19470,12129,1,117340,225528
2025-02-27 19:03:16.793,52328,19307,12090,0,117030,225267
2025-02-27 19:03:16.794,52186,19117,12033,6,116505,224736
2025-02-27 19:03:16.796,51998,18851,11915,10,115781,223916
2025-02-27 19:03:16.797,51861,18576,11777,1,115026,222860
2025-02-27 19:03:16.798,51737,18292,11635,7,114232,221730
2025-02-27 19:03:16.800,51672,18041,11505,0,113625,220732
2025-02-27 19:03:16.802,51646,17863,11405,8,113167,220109
2025-02-27 19:03:16.804,51675,17720,11343,6,112962,219680
2025-02-27 19:03:16.805,51693,17624,11293,4,112805,219516
2025-02-27 19:03:16.807,51750,17547,11252,4,112747,219538
2025-02-27 19:03:16.808,51833,17500,11213,0,112686,219656
2025-02-27 19:03:16.810,51899,17465,11217,7,112630,219849
2025-02-27 19:03:16.813,52032,17463,11194,2,112644,219966
2025-02-27 19:03:16.822,52159,17471,11199,4,112769,220127
2025-02-27 19:03:16.829,52330,17497,11206,7,112879,220282
2025-02-27 19:03:16.961,52502,17524,11214,0,113019,220443
2025-02-27 19:03:16.963,52664,17532,11230,0,113126,220603
2025-02-27 19:03:16.965,52840,17611,11233,9,113204,220705
2025-02-27 19:03:16.967,53042,17647,11253,3,113292,220764
2025-02-27 19:03:16.969,53223,17703,11263,4,113350,220826
2025-02-27 19:03:16.971,53406,17774,11290,0,113397,220830
2025-02-27 19:03:16.973,53595,17855,11292,0,113472,220816
2025-02-27 19:03:16.975,53836,17986,11332,0,113568,220742
2025-02-27 19:03:16.977,54082,18162,11442,0,113880,220827
2025-02-27 19:03:16.979,54307,18403,11523,6,114538,221294
2025-02-27 19:03:16.981,54424,18673,11671,0,115243,222002
2025-02-27 19:03:16.982,54445,18943,11811,22,116113,222925
2025-02-27 19:03:16.984,54313,19190,11943,0,116805,224000
2025-02-27 19:03:16.986,54009,19415,12061,0,117314,224949
2025-02-27 19:03:16.988,53581,19594,12160,15,117689,225660
2025-02-27 19:03:16.989,53067,19758,12242,3,117926,226153
2025-02-27 19:03:17.002,52561,19887,12314,1,118084,226467
2025-02-27 19:03:17.010,52147,19986,12394,9,118190,226632
2025-02-27 19:03:17.165,51794,20082,12451,0,118268,226703
2025-02-27 19:03:17.167,51531,20134,12497,3,118257,226777
2025-02-27 19:03:17.168,51259,20121,12525,3,118030,226647
2025-02-27 19:03:17.170,51131,20040,12544,12,117854,226257
2025-02-27 19:03:17.172,51115,19887,12556,11,117850,225832
2025-02-27 19:03:17.174,51175,19698,12535,4,117632,225672
2025-02-27 19:03:17.176,51285,19486,12490,4,117239,225247
2025-02-27 19:03:17.177,51393,19252,12404,4,116634,224571
2025-02-27 19:03:17.179,51198,19007,12282,0,115854,223699
2025-02-27 19:03:17.180,50990,18730,12137,2,115046,222553
2025-02-27 19:03:17.182,50875,18502,12023,4,114512,221414
2025-02-27 19:03:17.184,50804,18319,11933,5,114153,220672
2025-02-27 19:03:17.185,50761,18166,11857,0,113956,220276
2025-02-27 19:03:17.187,50728,18036,11783,6,113806,220129
2025-02-27 19:03:17.189,50684,17911,11707,2,113623,220109
2025-02-27 19:03:17.191,50638,17797,11637,6,113378,220019
2025-02-27 19:03:17.193,50604,17686,11574,3,113105,219818
2025-02-27 19:03:17.195,50601,17595,11517,0,112870,219565
2025-02-27 19:03:17.202,50607,17533,11472,0,112715,219425
2025-02-27 19:03:17.213,50668,17513,11462,2,112668,219415
2025-02-27 19:03:17.350,50728,17511,11451,3,112667,219471
2025-02-27 19:03:17.352,50858,17528,11469,6,112669,219613
2025-02-27 19:03:17.354,50968,17569,11481,3,112796,219731
2025-02-27 19:03:17.356,50968,17569,11481,3,112796,219731
2025-02-27 19:03:17.358,51263,17726,11577,0,113157,220250
2025-02-27 19:03:17.359,51408,17865,11642,2,113521,220623
2025-02-27 19:03:17.361,51507,18030,11704,0,113846,221055
2025-02-27 19:03:17.363,51544,18201,11785,5,113925,221398
2025-02-27 19:03:17.365,51564,18384,11832,3,113950,221349
2025-02-27 19:03:17.367,51654,18586,11906,1,114187,221339
2025-02-27 19:03:17.368,51829,18769,11946,4,114574,221616
2025-02-27 19:03:17.370,51995,18992,12033,4,115158,222064
2025-02-27 19:03:17.371,52034,19181,12114,5,115557,222696
2025-02-27 19:03:17.373,51920,19362,12201,3,115956,223252
2025-02-27 19:03:17.375,51688,19544,12297,8,116271,223793
2025-02-27 19:03:17.376,51411,19685,12365,0,116426,224280
2025-02-27 19:03:17.378,51174,19776,12409,0,116525,224463
2025-02-27 19:03:17.382,50982,19873,12463,5,116666,224561
2025-02-27 19:03:17.394,50827,19917,12503,2,116722,224672
2025-02-27 19:03:17.550,50723,19930,12521,2,116664,224658
2025-02-27 19:03:17.552,50615,19861,12511,0,116508,224445
2025-02-27 19:03:17.554,50552,19745,12503,14,116251,224067
2025-02-27 19:03:17.555,50542,19581,12485,1,115962,223519
2025-02-27 19:03:17.557,50633,19414,12445,11,115623,223010
2025-02-27 19:03:17.559,50769,19183,12379,7,115125,222395
2025-02-27 19:03:17.561,50817,18907,12275,1,114434,221580
2025-02-27 19:03:17.563,50583,18586,12126,6,113634,220485
2025-02-27 19:03:17.564,50460,18308,11984,13,112860,219298
2025-02-27 19:03:17.566,50409,18066,11864,3,112220,218262
2025-02-27 19:03:17.568,50420,17877,11771,8,111785,217526
2025-02-27 19:03:17.570,50469,17744,11694,5,111535,217023
2025-02-27 19:03:17.572,50564,17641,11656,5,111521,216865
2025-02-27 19:03:17.574,50670,17574,11619,0,111616,216945
2025-02-27 19:03:17.576,50759,17512,11595,10,111667,217146
2025-02-27 19:03:17.578,50837,17455,11566,9,111624,217287
2025-02-27 19:03:17.579,50937,17408,11546,0,111601,217385
2025-02-27 19:03:17.581,51026,17353,11512,4,111553,217487
2025-02-27 19:03:17.586,51104,17323,11490,1,111597,217591
2025-02-27 19:03:17.593,51190,17296,11469,3,111606,217709
2025-02-27 19:03:17.737,51312,17282,11455,1,111706,217863
2025-02-27 19:03:17.739,51432,17269,11452,3,111825,218089
2025-02-27 19:03:17.741,51553,17271,11441,0,111943,218235
2025-02-27 19:03:17.743,51680,17287,11451,6,112051,218436
2025-02-27 19:03:17.745,51826,17332,11465,7,112197,218595
2025-02-27 19:03:17.747,51939,17360,11481,3,112328,218750
2025-02-27 19:03:17.748,52109,17427,11510,7,112513,218954
2025-02-27 19:03:17.750,52272,17508,11548,5,112763,219205
2025-02-27 19:03:17.751,52413,17624,11583,3,113056,219478
2025-02-27 19:03:17.753,52529,17766,11629,1,113295,219812
2025-02-27 19:03:17.754,52626,17920,11686,10,113436,220076
2025-02-27 19:03:17.756,52717,18137,11755,6,113769,220215
2025-02-27 19:03:17.758,52863,18400,11855,1,114376,220614
2025-02-27 19:03:17.759,52994,18634,11956,0,115087,221281
2025-02-27 19:03:17.761,53048,18900,12078,12,116047,222181
2025-02-27 19:03:17.763,52898,19133,12182,7,116708,223340
2025-02-27 19:03:17.765,52530,19330,12276,7,117170,224244
2025-02-27 19:03:17.774,52136,19470,12354,4,117478,224861
2025-02-27 19:03:17.786,51810,19590,12427,7,117743,225270
2025-02-27 19:03:17.951,51525,19685,12491,4,117940,225614
2025-02-27 19:03:17.953,51345,19782,12552,0,118106,225891
2025-02-27 19:03:17.955,51192,19826,12591,0,118193,226118
2025-02-27 19:03:17.957,51072,19864,12620,8,118173,226194
2025-02-27 19:03:17.959,50955,19897,12655,0,118117,226233
2025-02-27 19:03:17.961,50872,19895,12656,14,118000,226173
2025-02-27 19:03:17.962,50794,19884,12682,4,117859,226017
2025-02-27 19:03:17.964,50734,19875,12706,8,117759,225803
2025-02-27 19:03:17.966,50632,19822,12677,8,117674,225658
2025-02-27 19:03:17.968,50658,19768,12712,2,117789,225536
2025-02-27 19:03:17.970,50665,19660,12695,1,117816,225580
2025-02-27 19:03:17.971,50747,19510,12683,3,117778,225570
2025-02-27 19:03:17.973,50799,19301,12629,20,117469,225461
2025-02-27 19:03:17.975,50814,19055,12530,0,116893,224911
2025-02-27 19:03:17.977,50667,18768,12403,19,116190,224032
2025-02-27 19:03:17.979,50534,18502,12260,10,115436,222966
2025-02-27 19:03:17.980,50442,18256,12132,0,114804,221908
2025-02-27 19:03:17.982,50427,18068,12021,3,114331,221101
2025-02-27 19:03:17.984,50405,17902,11943,0,113949,220563
2025-02-27 19:03:17.987,50431,17782,11880,0,113662,220210
2025-02-27 19:03:17.998,50447,17680,11818,4,113523,220033
2025-02-27 19:03:18.140,50482,17619,11777,6,113401,219949
2025-02-27 19:03:18.142,50537,17568,11742,3,113397,219891
2025-02-27 19:03:18.144,50656,17559,11749,0,113461,220017
2025-02-27 19:03:18.147,50746,17536,11739,9,113517,220273
2025-02-27 19:03:18.149,50858,17545,11738,6,113638,220480
2025-02-27 19:03:18.151,50951,17559,11746,2,113760,220736
2025-02-27 19:03:18.153,51090,17601,11779,3,113918,220979
2025-02-27 19:03:18.155,51209,17658,11816,1,114131,221321
2025-02-27 19:03:18.157,51338,17745,11865,0,114415,221710
2025-02-27 19:03:18.158,51464,17837,11922,1,114715,222151
2025-02-27 19:03:18.160,51559,17953,11998,4,115067,222633
2025-02-27 19:03:18.162,51612,18087,12076,15,115303,223095
2025-02-27 19:03:18.164,51669,18245,12156,5,115550,223462
2025-02-27 19:03:18.165,51733,18413,12258,0,115883,223902
2025-02-27 19:03:18.167,51717,18575,12336,0,116166,224526
2025-02-27 19:03:18.169,51606,18683,12374,10,116422,224969
2025-02-27 19:03:18.171,51487,18733,12363,7,116559,225107
2025-02-27 19:03:18.179,51314,18780,12308,4,116492,225002
2025-02-27 19:03:18.351,51091,18784,12252,6,116311,224640
2025-02-27 19:03:18.353,50990,18806,12191,0,116083,224049
2025-02-27 19:03:18.356,51059,18901,12195,3,116095,223636
2025-02-27 19:03:18.358,51117,18972,12191,6,116210,223563
2025-02-27 19:03:18.360,51130,19088,12225,2,116409,223737
2025-02-27 19:03:18.362,51028,19215,12287,1,116655,224018
2025-02-27 19:03:18.364,50912,19334,12340,1,116905,224387
2025-02-27 19:03:18.366,50912,19334,12340,1,116905,224387
2025-02-27 19:03:18.368,50747,19528,12427,7,117344,225133
2025-02-27 19:03:18.370,50686,19594,12460,1,117529,225419
2025-02-27 19:03:18.371,50653,19661,12493,5,117660,225682
2025-02-27 19:03:18.373,50604,19681,12523,6,117773,225890
2025-02-27 19:03:18.375,50570,19672,12572,17,117883,226071
2025-02-27 19:03:18.378,50536,19606,12567,0,117907,226158
2025-02-27 19:03:18.380,50519,19476,12569,0,117830,226134
2025-02-27 19:03:18.382,50475,19280,12514,8,117430,225876
2025-02-27 19:03:18.384,50424,19065,12441,5,116865,225193
2025-02-27 19:03:18.385,50348,18819,12327,8,116202,224310
2025-02-27 19:03:18.388,50269,18556,12200,6,115442,223284
2025-02-27 19:03:18.391,50184,18286,12059,6,114703,222239
2025-02-27 19:03:18.393,50168,18056,11941,0,114168,221303
2025-02-27 19:03:18.395,50161,17872,11828,5,113806,220661
2025-02-27 19:03:18.398,50170,17708,11734,4,113427,220311
2025-02-27 19:03:18.550,50187,17572,11655,2,113133,219924
2025-02-27 19:03:18.552,50304,17479,11598,7,113078,219656
2025-02-27 19:03:18.554,50399,17410,11557,0,113022,219597
2025-02-27 19:03:18.556,50518,17379,11534,4,113030,219707
2025-02-27 19:03:18.558,50637,17351,11513,0,113099,219868
2025-02-27 19:03:18.560,50790,17372,11517,0,113217,220090
2025-02-27 19:03:18.562,50933,17380,11522,7,113447,220406
2025-02-27 19:03:18.564,51089,17441,11543,0,113684,220835
2025-02-27 19:03:18.566,51241,17495,11577,0,113963,221300
2025-02-27 19:03:18.567,51380,17595,11629,8,114231,221752
2025-02-27 19:03:18.569,51441,17696,11668,0,114448,222198
2025-02-27 19:03:18.570,51484,17822,11704,7,114599,222560
2025-02-27 19:03:18.572,51498,17937,11729,5,114806,222854
2025-02-27 19:03:18.574,51441,18065,11735,3,115055,223074
2025-02-27 19:03:18.576,51288,18208,11749,3,115384,223241
2025-02-27 19:03:18.578,51177,18409,11773,4,115713,223475
2025-02-27 19:03:18.579,50991,18573,11809,8,115907,223832
2025-02-27 19:03:18.581,50659,18708,11838,7,116025,223998
2025-02-27 19:03:18.590,50288,18842,11859,0,116138,224052
2025-02-27 19:03:18.771,49972,18954,11899,2,116288,224178
2025-02-27 19:03:18.773,49710,19052,11955,6,116481,224394
2025-02-27 19:03:18.775,49574,19108,12000,5,116629,224682
2025-02-27 19:03:18.778,49506,19127,12032,3,116724,224881
2025-02-27 19:03:18.780,49470,19122,12077,0,116863,225006
2025-02-27 19:03:18.782,49435,19092,12084,1,117039,225161
2025-02-27 19:03:18.784,49453,19031,12099,3,117247,225362
2025-02-27 19:03:18.786,49480,18944,12105,4,117457,225528
2025-02-27 19:03:18.787,49534,18888,12114,4,117649,225669
2025-02-27 19:03:18.789,49613,18786,12101,6,117798,225872
2025-02-27 19:03:18.791,49731,18680,12073,1,117774,225901
2025-02-27 19:03:18.792,49835,18520,12023,3,117592,225748
2025-02-27 19:03:18.794,49921,18372,11942,1,117282,225428
2025-02-27 19:03:18.796,49936,18204,11858,0,116859,224884
2025-02-27 19:03:18.797,50037,18055,11773,0,116529,224252
2025-02-27 19:03:18.799,50103,17915,11697,3,116278,223823
2025-02-27 19:03:18.801,50202,17803,11618,3,116123,223549
2025-02-27 19:03:18.802,50275,17735,11558,0,115965,223348
2025-02-27 19:03:18.804,50346,17654,11515,10,115875,223180
2025-02-27 19:03:18.806,50417,17640,11481,0,115821,223061
2025-02-27 19:03:18.808,50478,17624,11469,8,115839,223058
2025-02-27 19:03:18.811,50478,17623,11449,2,115828,223097
2025-02-27 19:03:18.958,50439,17641,11432,3,115757,223113
2025-02-27 19:03:18.960,50398,17655,11421,5,115686,223079
2025-02-27 19:03:18.962,50375,17697,11401,3,115597,223041
2025-02-27 19:03:18.964,50314,17731,11421,0,115459,222990
2025-02-27 19:03:18.966,50242,17774,11405,0,115239,222880
2025-02-27 19:03:18.968,50142,17823,11408,0,114918,222686
2025-02-27 19:03:18.969,50110,17885,11414,18,114527,222257
2025-02-27 19:03:18.971,50207,17988,11451,0,114354,221754
2025-02-27 19:03:18.973,50487,18153,11507,7,114575,221566
2025-02-27 19:03:18.975,50733,18350,11624,13,115060,221878
2025-02-27 19:03:18.977,50778,18546,11722,1,115576,222622
2025-02-27 19:03:18.978,50658,18723,11816,7,116006,223392
2025-02-27 19:03:18.980,50552,18832,11890,1,116396,223938
2025-02-27 19:03:18.982,50490,18874,11943,9,116786,224460
2025-02-27 19:03:18.984,50535,18870,11996,0,117320,224950
2025-02-27 19:03:18.986,50562,18838,12015,9,117736,225583
2025-02-27 19:03:18.988,50623,18793,12012,0,117960,226053
2025-02-27 19:03:18.994,50798,18698,11989,9,118037,226322
2025-02-27 19:03:19.002,51002,18546,11930,3,118012,226392
2025-02-27 19:03:19.169,51053,18374,11868,5,117794,226284
2025-02-27 19:03:19.171,51030,18190,11775,4,117331,225937
2025-02-27 19:03:19.173,50982,17994,11675,11,116784,225242
2025-02-27 19:03:19.175,50998,17807,11575,1,116452,224550
2025-02-27 19:03:19.177,51082,17652,11490,2,116355,224082
2025-02-27 19:03:19.179,51224,17514,11410,7,116371,223890
2025-02-27 19:03:19.181,51364,17436,11365,0,116463,223940
2025-02-27 19:03:19.183,51543,17407,11351,1,116656,224121
2025-02-27 19:03:19.185,51797,17385,11333,1,116867,224437
2025-02-27 19:03:19.187,52061,17385,11328,10,117122,224816
2025-02-27 19:03:19.188,52358,17400,11333,0,117379,225197
2025-02-27 19:03:19.190,52719,17437,11342,1,117673,225612
2025-02-27 19:03:19.192,53236,17462,11382,1,117986,226074
2025-02-27 19:03:19.194,53932,17509,11422,15,118360,226624
2025-02-27 19:03:19.195,54646,17528,11441,0,118613,227263
2025-02-27 19:03:19.197,55299,17548,11464,2,118815,227707
2025-02-27 19:03:19.199,55820,17583,11473,8,118918,228066
2025-02-27 19:03:19.201,56125,17619,11498,10,118982,228320
2025-02-27 19:03:19.203,56154,17678,11527,3,118974,228479
2025-02-27 19:03:19.206,55994,17794,11567,4,118945,228563
2025-02-27 19:03:19.213,55764,17922,11627,2,118894,228668
2025-02-27 19:03:19.364,55317,18072,11676,0,118787,228661
2025-02-27 19:03:19.366,54619,18222,11719,0,118598,228587
2025-02-27 19:03:19.368,53750,18347,11746,0,118376,228227
2025-02-27 19:03:19.370,52874,18459,11742,0,117845,227649
2025-02-27 19:03:19.371,52874,18459,11742,0,117845,227649
2025-02-27 19:03:19.373,52053,18648,11765,1,117165,226103
2025-02-27 19:03:19.375,51954,18706,11779,0,116945,225633
2025-02-27 19:03:19.377,51719,18737,11773,0,116679,225295
2025-02-27 19:03:19.379,51428,18725,11772,7,116394,224915
2025-02-27 19:03:19.380,51294,18672,11751,5,116037,224532
2025-02-27 19:03:19.382,51262,18563,11725,6,115758,224017
2025-02-27 19:03:19.383,51331,18425,11702,3,115658,223563
2025-02-27 19:03:19.385,51456,18251,11680,9,115758,223285
2025-02-27 19:03:19.387,51598,18053,11633,4,115922,223153
2025-02-27 19:03:19.389,51752,17866,11551,1,115869,223211
2025-02-27 19:03:19.391,51865,17667,11469,6,115633,223183
2025-02-27 19:03:19.392,51988,17494,11375,1,115494,223002
2025-02-27 19:03:19.394,52090,17342,11295,5,115364,222919
2025-02-27 19:03:19.396,52165,17232,11213,4,115321,222851
2025-02-27 19:03:19.406,52328,17188,11169,4,115411,222900
2025-02-27 19:03:19.574,52575,17170,11157,3,115675,223252
2025-02-27 19:03:19.576,52920,17168,11142,7,115992,223734
2025-02-27 19:03:19.578,53271,17177,11137,5,116285,224191
2025-02-27 19:03:19.580,53596,17188,11109,1,116522,224641
2025-02-27 19:03:19.582,53871,17210,11118,8,116722,224969
2025-02-27 19:03:19.584,54116,17253,11111,5,116924,225277
2025-02-27 19:03:19.585,54330,17291,11121,7,117103,225550
2025-02-27 19:03:19.587,54556,17352,11147,0,117349,225860
2025-02-27 19:03:19.589,54762,17436,11176,5,117585,226181
2025-02-27 19:03:19.590,54953,17523,11222,3,117775,226543
2025-02-27 19:03:19.592,55052,17654,11267,8,117997,226878
2025-02-27 19:03:19.594,55032,17806,11320,5,118220,227206
2025-02-27 19:03:19.595,54848,17957,11365,0,118377,227488
2025-02-27 19:03:19.597,54449,18120,11411,7,118319,227670
2025-02-27 19:03:19.598,53925,18306,11449,6,118402,227536
2025-02-27 19:03:19.600,53468,18499,11508,4,118467,227404
2025-02-27 19:03:19.601,53124,18662,11564,0,118458,227258
