Timestamp,PPG1,PPG2,PPG3,PPG4,PPG5,PPG6
2025-02-27 17:21:26.816,173121,120610,70061,4,478007,426297
2025-02-27 17:21:29.464,173133,120605,70072,5,478038,426337
2025-02-27 17:21:30.425,173133,120605,70072,5,478038,426337
2025-02-27 17:21:30.444,173185,120586,70039,1,478087,426399
2025-02-27 17:21:30.460,173158,120520,69987,4,478017,426318
2025-02-27 17:21:30.584,173161,120461,69927,2,477949,426273
2025-02-27 17:21:30.586,173168,120399,69870,6,477865,426210
2025-02-27 17:21:30.588,173199,120361,69842,5,477828,426201
2025-02-27 17:21:30.589,173216,120330,69824,2,477819,426275
2025-02-27 17:21:30.591,173239,120302,69806,4,477751,426285
2025-02-27 17:21:30.593,173261,120277,69792,2,477768,426220
2025-02-27 17:21:30.594,173265,120255,69786,2,477670,426217
2025-02-27 17:21:30.596,173283,120240,69775,3,477632,426225
2025-02-27 17:21:30.598,173277,120209,69759,3,477604,426116
2025-02-27 17:21:30.600,173273,120196,69757,3,477584,426053
2025-02-27 17:21:30.601,173262,120168,69748,5,477497,425996
2025-02-27 17:21:30.603,173237,120150,69737,2,477467,425986
2025-02-27 17:21:30.605,173236,120116,69723,3,477385,425952
2025-02-27 17:21:30.607,173224,120115,69724,3,477349,425839
2025-02-27 17:21:30.608,173216,120076,69698,2,477336,425836
2025-02-27 17:21:30.610,173212,120051,69683,3,477323,425812
2025-02-27 17:21:30.612,173209,120035,69668,1,477240,425745
2025-02-27 17:21:30.614,173206,120010,69656,3,477246,425799
2025-02-27 17:21:30.616,173232,120002,69659,3,477160,425749
2025-02-27 17:21:30.618,173243,120023,69682,4,477139,425776
2025-02-27 17:21:30.620,173269,120051,69688,5,477242,425796
2025-02-27 17:21:30.622,173302,120048,69696,6,477304,425881
2025-02-27 17:21:30.623,173322,120063,69714,0,477343,425934
2025-02-27 17:21:30.625,173370,120093,69728,5,477466,426007
2025-02-27 17:21:30.627,173406,120108,69741,5,477509,426100
2025-02-27 17:21:30.698,173455,120152,69756,5,477586,426209
2025-02-27 17:21:30.700,173504,120162,69782,3,477709,426330
2025-02-27 17:21:30.701,173547,120208,69793,3,477814,426468
2025-02-27 17:21:30.703,173571,120208,69798,4,477959,426550
2025-02-27 17:21:30.705,173603,120201,69799,4,477991,426627
2025-02-27 17:21:30.706,173620,120194,69789,1,478019,426645
2025-02-27 17:21:30.708,173622,120190,69788,7,478036,426637
2025-02-27 17:21:30.709,173664,120191,69788,7,478060,426686
2025-02-27 17:21:30.711,173684,120207,69800,5,478074,426744
2025-02-27 17:21:30.713,173699,120225,69808,3,478162,426803
2025-02-27 17:21:30.715,173725,120228,69817,2,478200,426840
2025-02-27 17:21:30.717,173743,120237,69833,3,478197,426887
2025-02-27 17:21:30.718,173761,120276,69852,2,478269,426924
2025-02-27 17:21:30.720,173784,120268,69866,4,478358,427004
2025-02-27 17:21:30.721,173812,120253,69864,4,478355,427027
2025-02-27 17:21:30.723,173795,120253,69844,4,478361,427031
2025-02-27 17:21:30.725,173804,120238,69842,4,478355,427023
2025-02-27 17:21:30.727,173813,120222,69833,3,478352,427014
2025-02-27 17:21:30.728,173837,120210,69829,3,478338,426961
2025-02-27 17:21:30.730,173823,120206,69835,6,478242,426970
2025-02-27 17:21:30.732,173840,120203,69838,3,478278,427000
2025-02-27 17:21:30.734,173843,120211,69840,0,478348,427011
2025-02-27 17:21:30.736,173860,120197,69848,3,478324,427029
2025-02-27 17:21:30.738,173873,120216,69839,4,478333,427073
2025-02-27 17:21:30.740,173878,120194,69839,5,478355,427096
2025-02-27 17:21:30.742,173872,120167,69812,5,478262,427042
2025-02-27 17:21:30.834,173878,120170,69810,3,478212,426990
2025-02-27 17:21:30.836,173892,120153,69803,3,478263,427011
2025-02-27 17:21:30.838,173914,120146,69795,7,478200,427006
2025-02-27 17:21:30.840,173916,120151,69805,4,478095,426964
2025-02-27 17:21:30.842,173956,120165,69818,3,478179,427018
2025-02-27 17:21:30.844,174004,120207,69859,6,478224,427119
2025-02-27 17:21:30.846,174054,120255,69887,6,478321,427187
2025-02-27 17:21:30.848,174079,120270,69905,2,478392,427292
2025-02-27 17:21:30.850,174090,120292,69905,2,478492,427300
2025-02-27 17:21:30.851,174068,120243,69888,3,478453,427300
2025-02-27 17:21:30.853,174010,120190,69835,1,478339,427197
2025-02-27 17:21:30.855,173931,120122,69782,3,478184,427058
2025-02-27 17:21:30.857,173787,120003,69714,3,478083,426893
2025-02-27 17:21:30.859,173591,119856,69639,2,477806,426614
2025-02-27 17:21:30.861,173388,119734,69570,7,477544,426215
2025-02-27 17:21:30.863,173182,119612,69512,1,477248,425867
2025-02-27 17:21:30.865,173052,119525,69463,4,477050,425678
2025-02-27 17:21:30.868,172911,119403,69398,3,476861,425447
2025-02-27 17:21:30.870,172805,119302,69342,6,476735,425277
2025-02-27 17:21:30.872,172726,119214,69267,5,476600,425089
2025-02-27 17:21:30.874,172666,119093,69184,3,476504,424930
2025-02-27 17:21:30.876,172619,118984,69101,6,476315,424760
2025-02-27 17:21:30.878,172565,118890,69024,5,476198,424595
2025-02-27 17:21:30.946,172550,118813,68947,2,476080,424477
2025-02-27 17:21:30.948,172544,118724,68879,5,475987,424404
2025-02-27 17:21:30.950,172525,118656,68811,5,475935,424294
2025-02-27 17:21:30.952,172503,118569,68741,3,475858,424273
2025-02-27 17:21:30.954,172503,118569,68741,3,475858,424273
2025-02-27 17:21:30.956,172431,118378,68576,4,475565,424042
2025-02-27 17:21:30.958,172397,118286,68498,5,475474,423910
2025-02-27 17:21:30.960,172369,118197,68420,5,475313,423801
2025-02-27 17:21:30.961,172344,118116,68375,4,475173,423635
2025-02-27 17:21:30.963,172355,118077,68350,4,475064,423619
2025-02-27 17:21:30.965,172357,118049,68334,4,475053,423585
2025-02-27 17:21:30.967,172397,118074,68346,6,475025,423575
2025-02-27 17:21:30.969,172448,118093,68359,8,475145,423736
2025-02-27 17:21:30.971,172480,118097,68350,1,475247,423835
2025-02-27 17:21:30.974,172508,118075,68329,4,475285,423946
2025-02-27 17:21:30.977,172508,118041,68290,6,475277,423966
2025-02-27 17:21:30.979,172503,117980,68242,3,475301,423926
2025-02-27 17:21:30.981,172491,117927,68188,6,475169,423804
2025-02-27 17:21:30.983,172465,117851,68144,2,475059,423749
2025-02-27 17:21:30.985,172450,117816,68116,2,474923,423633
2025-02-27 17:21:30.988,172434,117794,68110,4,474895,423575
2025-02-27 17:21:30.990,172444,117802,68127,6,474933,423613
2025-02-27 17:21:30.992,172456,117846,68163,4,474960,423610
2025-02-27 17:21:30.993,172478,117879,68181,5,475083,423812
2025-02-27 17:21:31.087,172512,117889,68187,5,475189,423880
2025-02-27 17:21:31.089,172503,117879,68186,4,475216,423914
2025-02-27 17:21:31.091,172512,117883,68202,2,475251,423915
2025-02-27 17:21:31.093,172524,117893,68200,4,475286,423898
2025-02-27 17:21:31.095,172548,117910,68224,3,475288,423931
2025-02-27 17:21:31.097,172581,117930,68244,0,475390,424026
2025-02-27 17:21:31.099,172613,117967,68265,1,475475,424170
2025-02-27 17:21:31.101,172634,117972,68264,2,475611,424248
2025-02-27 17:21:31.102,172650,117953,68245,5,475692,424390
2025-02-27 17:21:31.104,172654,117915,68223,5,475674,424375
2025-02-27 17:21:31.106,172672,117907,68223,2,475617,424384
2025-02-27 17:21:31.108,172696,117906,68224,3,475659,424488
2025-02-27 17:21:31.110,172737,117937,68234,4,475699,424452
2025-02-27 17:21:31.112,172796,117976,68273,3,475756,424527
2025-02-27 17:21:31.113,172838,118024,68308,5,475903,424688
2025-02-27 17:21:31.115,172901,118102,68356,3,476085,424882
2025-02-27 17:21:31.118,172953,118136,68391,5,476264,425032
2025-02-27 17:21:31.119,172984,118151,68400,6,476396,425174
2025-02-27 17:21:31.121,173010,118149,68389,6,476465,425212
2025-02-27 17:21:31.123,172992,118140,68388,2,476403,425204
2025-02-27 17:21:31.125,173024,118118,68369,4,476413,425191
2025-02-27 17:21:31.128,173006,118097,68364,5,476375,425172
2025-02-27 17:21:31.129,172999,118078,68356,5,476263,425079
2025-02-27 17:21:31.131,173010,118062,68351,2,476232,425016
2025-02-27 17:21:31.134,173027,118066,68345,3,476169,424988
2025-02-27 17:21:31.135,173036,118039,68335,4,476087,425032
2025-02-27 17:21:31.204,173034,118012,68312,5,476148,424976
2025-02-27 17:21:31.206,173012,117979,68289,4,475978,424842
2025-02-27 17:21:31.208,173017,117937,68260,1,475903,424740
2025-02-27 17:21:31.209,172996,117917,68236,2,475758,424709
2025-02-27 17:21:31.211,172990,117871,68216,6,475658,424563
2025-02-27 17:21:31.213,172978,117837,68178,6,475591,424498
2025-02-27 17:21:31.215,172970,117808,68147,3,475440,424487
2025-02-27 17:21:31.217,172965,117781,68119,1,475412,424389
2025-02-27 17:21:31.218,172939,117752,68101,7,475350,424292
2025-02-27 17:21:31.220,172969,117742,68093,5,475244,424229
2025-02-27 17:21:31.222,172954,117745,68097,4,475250,424252
2025-02-27 17:21:31.223,172960,117743,68098,4,475280,424235
2025-02-27 17:21:31.225,172992,117739,68098,5,475190,424210
2025-02-27 17:21:31.227,172996,117740,68095,3,475190,424235
2025-02-27 17:21:31.229,173014,117761,68118,4,475219,424267
2025-02-27 17:21:31.230,173035,117782,68136,2,475274,424274
2025-02-27 17:21:31.232,173072,117825,68162,4,475299,424386
2025-02-27 17:21:31.234,173089,117842,68184,3,475372,424448
2025-02-27 17:21:31.236,173115,117878,68208,4,475453,424553
2025-02-27 17:21:31.238,173161,117897,68221,4,475536,424635
2025-02-27 17:21:31.241,173150,117908,68223,3,475533,424659
2025-02-27 17:21:31.243,173179,117904,68230,2,475525,424627
2025-02-27 17:21:31.245,173210,117911,68238,5,475548,424679
2025-02-27 17:21:31.247,173237,117936,68251,3,475576,424750
2025-02-27 17:21:31.249,173259,117979,68278,4,475607,424795
2025-02-27 17:21:31.250,173282,118004,68300,3,475677,424921
2025-02-27 17:21:31.253,173322,118050,68339,5,475773,424973
2025-02-27 17:21:31.346,173286,118090,68364,2,475829,425092
2025-02-27 17:21:31.349,173261,118091,68381,3,475898,425011
2025-02-27 17:21:31.350,173184,118063,68377,6,475935,425074
2025-02-27 17:21:31.352,173026,118004,68362,3,475866,425000
2025-02-27 17:21:31.354,172833,117902,68318,6,475708,424765
2025-02-27 17:21:31.356,172627,117771,68244,3,475503,424504
2025-02-27 17:21:31.358,172425,117597,68140,1,475284,424157
2025-02-27 17:21:31.359,172238,117415,68023,2,475016,423799
2025-02-27 17:21:31.361,172238,117415,68023,2,475016,423799
2025-02-27 17:21:31.363,171899,116984,67746,6,474300,422960
2025-02-27 17:21:31.364,171790,116779,67620,6,473948,422548
2025-02-27 17:21:31.366,171658,116570,67482,1,473500,422197
2025-02-27 17:21:31.368,171600,116414,67393,4,473124,421815
2025-02-27 17:21:31.370,171554,116324,67343,4,472896,421581
2025-02-27 17:21:31.372,171527,116267,67305,4,472782,421448
2025-02-27 17:21:31.374,171529,116200,67258,5,472652,421379
2025-02-27 17:21:31.377,171528,116129,67225,4,472627,421295
2025-02-27 17:21:31.379,171509,116054,67174,6,472470,421184
2025-02-27 17:21:31.381,171503,115989,67108,3,472340,421030
2025-02-27 17:21:31.383,171467,115885,67034,6,472145,420891
2025-02-27 17:21:31.386,171420,115784,66952,4,471912,420678
2025-02-27 17:21:31.389,171383,115682,66857,3,471664,420390
2025-02-27 17:21:31.391,171349,115595,66793,3,471352,420150
2025-02-27 17:21:31.393,171343,115514,66728,5,471170,419952
2025-02-27 17:21:31.395,171327,115445,66657,3,471021,419820
2025-02-27 17:21:31.481,171338,115418,66613,7,470924,419699
2025-02-27 17:21:31.484,171354,115369,66564,3,470883,419674
2025-02-27 17:21:31.486,171345,115314,66513,1,470832,419703
2025-02-27 17:21:31.488,171341,115253,66455,2,470717,419589
2025-02-27 17:21:31.490,171304,115188,66397,3,470503,419431
2025-02-27 17:21:31.492,171280,115104,66329,5,470312,419306
2025-02-27 17:21:31.494,171263,115068,66294,4,470126,419158
2025-02-27 17:21:31.496,171273,115039,66266,5,470023,419097
2025-02-27 17:21:31.499,171225,115031,66259,4,470018,419020
2025-02-27 17:21:31.501,171207,115006,66237,3,469976,419044
2025-02-27 17:21:31.504,171195,114992,66223,5,469895,419001
2025-02-27 17:21:31.506,171163,114996,66212,3,469961,419010
2025-02-27 17:21:31.508,171159,114966,66190,6,469905,418992
2025-02-27 17:21:31.510,171130,114919,66170,2,469876,418964
2025-02-27 17:21:31.512,171118,114904,66154,6,469818,418893
2025-02-27 17:21:31.515,171100,114878,66139,2,469737,418837
2025-02-27 17:21:31.519,171099,114870,66140,4,469736,418845
2025-02-27 17:21:31.522,171091,114871,66124,3,469752,418849
2025-02-27 17:21:31.525,171102,114864,66107,5,469758,418897
2025-02-27 17:21:31.528,171109,114845,66086,4,469741,418905
2025-02-27 17:21:31.889,171103,114797,66066,4,469755,418958
2025-02-27 17:21:31.890,171094,114763,66042,6,469700,418898
2025-02-27 17:21:31.893,171103,114770,66047,3,469663,418823
2025-02-27 17:21:31.895,171078,114701,66001,4,469669,418836
2025-02-27 17:21:31.897,171080,114668,65985,5,469475,418697
2025-02-27 17:21:31.900,171102,114686,66009,4,469406,418633
2025-02-27 17:21:31.901,171118,114734,66020,4,469429,418641
2025-02-27 17:21:31.903,171176,114791,66064,3,469557,418786
2025-02-27 17:21:31.905,171207,114865,66092,6,469737,418938
2025-02-27 17:21:31.907,171253,114905,66116,2,469892,419098
2025-02-27 17:21:31.909,171269,114916,66107,2,469994,419175
2025-02-27 17:21:31.912,171285,114911,66109,6,469981,419187
2025-02-27 17:21:31.914,171265,114894,66097,4,469941,419226
2025-02-27 17:21:31.916,171270,114865,66082,4,469885,419137
2025-02-27 17:21:31.919,171276,114856,66079,4,469866,419104
2025-02-27 17:21:31.922,171261,114851,66086,6,469770,419036
2025-02-27 17:21:31.925,171300,114898,66137,3,469784,419028
2025-02-27 17:21:31.927,171346,114981,66200,4,469928,419078
2025-02-27 17:21:31.931,171418,115113,66265,5,470025,419207
2025-02-27 17:21:31.937,171471,115206,66334,4,470333,419477
2025-02-27 17:21:32.119,171522,115289,66365,3,470526,419620
2025-02-27 17:21:32.122,171542,115361,66392,3,470667,419743
2025-02-27 17:21:32.123,171572,115385,66416,2,470776,419834
2025-02-27 17:21:32.125,171603,115435,66435,5,470882,419945
2025-02-27 17:21:32.127,171640,115497,66483,3,471007,420092
2025-02-27 17:21:32.129,171670,115564,66531,2,471123,420145
2025-02-27 17:21:32.131,171717,115641,66582,2,471307,420352
2025-02-27 17:21:32.133,171757,115689,66611,5,471478,420481
2025-02-27 17:21:32.135,171823,115746,66640,7,471595,420623
2025-02-27 17:21:32.137,171836,115809,66680,4,471719,420767
2025-02-27 17:21:32.139,171891,115883,66719,4,471838,420927
2025-02-27 17:21:32.140,171926,115955,66764,2,471996,421136
2025-02-27 17:21:32.142,171985,116041,66821,1,472229,421348
2025-02-27 17:21:32.144,172034,116125,66870,4,472442,421550
2025-02-27 17:21:32.146,172088,116212,66935,5,472633,421809
2025-02-27 17:21:32.148,172169,116334,67011,3,472868,422023
2025-02-27 17:21:32.150,172253,116467,67108,5,473214,422381
2025-02-27 17:21:32.152,172326,116589,67206,4,473583,422713
2025-02-27 17:21:32.153,172419,116717,67301,0,473918,423016
2025-02-27 17:21:32.155,172502,116881,67402,3,474259,423395
2025-02-27 17:21:32.158,172592,117016,67498,3,474687,423775
2025-02-27 17:21:32.160,172677,117150,67575,2,475045,424191
2025-02-27 17:21:32.162,172741,117209,67614,4,475376,424447
2025-02-27 17:21:32.164,172762,117229,67628,2,475499,424597
2025-02-27 17:21:32.168,172762,117229,67628,2,475499,424597
2025-02-27 17:21:32.335,172792,117276,67671,4,475534,424674
2025-02-27 17:21:32.337,172786,117300,67694,3,475587,424690
2025-02-27 17:21:32.338,172711,117295,67690,3,475700,424710
2025-02-27 17:21:32.341,172614,117233,67688,5,475654,424717
2025-02-27 17:21:32.355,172448,117148,67660,3,475561,424524
2025-02-27 17:21:32.359,172240,117020,67600,3,475372,424233
2025-02-27 17:21:32.363,172028,116853,67536,2,475059,423870
2025-02-27 17:21:32.366,171838,116723,67466,5,474786,423500
2025-02-27 17:21:32.369,171699,116581,67411,3,474618,423286
2025-02-27 17:21:32.374,171578,116440,67343,4,474397,423058
2025-02-27 17:21:32.379,171494,116330,67286,2,474280,422815
2025-02-27 17:21:32.383,171438,116237,67253,4,474094,422711
2025-02-27 17:21:32.613,171396,116169,67224,2,474049,422551
2025-02-27 17:21:32.615,171404,116130,67214,3,474024,422497
2025-02-27 17:21:32.616,171425,116083,67208,3,474013,422529
2025-02-27 17:21:32.618,171435,116088,67213,5,473994,422536
2025-02-27 17:21:32.619,171465,116091,67239,3,474122,422571
2025-02-27 17:21:32.621,171525,116117,67259,4,474257,422774
2025-02-27 17:21:32.623,171567,116139,67283,2,474379,422881
2025-02-27 17:21:32.624,171634,116176,67313,3,474490,423000
2025-02-27 17:21:32.626,171672,116207,67341,3,474581,423140
2025-02-27 17:21:32.629,171710,116236,67368,1,474769,423274
2025-02-27 17:21:32.632,171770,116263,67405,4,474910,423427
2025-02-27 17:21:32.634,171794,116308,67426,6,475069,423570
2025-02-27 17:21:32.635,171862,116349,67465,4,475171,423719
2025-02-27 17:21:32.637,171948,116389,67510,4,475352,423843
2025-02-27 17:21:32.640,172027,116447,67568,1,475530,424074
2025-02-27 17:21:32.646,172090,116528,67635,5,475771,424294
2025-02-27 17:21:32.762,172190,116634,67699,3,476035,424539
2025-02-27 17:21:32.764,172279,116713,67767,2,476243,424773
2025-02-27 17:21:32.766,172349,116805,67833,6,476479,425069
2025-02-27 17:21:32.767,172434,116889,67890,7,476724,425221
2025-02-27 17:21:32.770,172487,116951,67944,3,476920,425466
2025-02-27 17:21:32.771,172524,117009,67967,2,477177,425644
2025-02-27 17:21:32.773,172540,117052,68003,4,477337,425752
2025-02-27 17:21:32.775,172584,117092,68032,5,477489,425861
2025-02-27 17:21:32.776,172597,117099,68053,2,477603,426015
2025-02-27 17:21:32.778,172632,117126,68053,8,477697,426136
2025-02-27 17:21:32.780,172630,117101,68048,5,477759,426154
2025-02-27 17:21:32.781,172621,117059,68019,3,477683,426180
2025-02-27 17:21:32.783,172620,117022,67992,6,477589,426111
2025-02-27 17:21:32.786,172585,116971,67957,6,477535,426012
2025-02-27 17:21:32.787,172593,116902,67928,4,477462,425933
2025-02-27 17:21:32.789,172591,116891,67927,0,477278,425851
2025-02-27 17:21:32.791,172618,116890,67938,6,477246,425868
2025-02-27 17:21:32.793,172658,116904,67976,1,477336,425937
2025-02-27 17:21:32.797,172712,116947,67995,3,477419,426002
2025-02-27 17:21:32.799,172749,116971,68029,3,477519,426132
2025-02-27 17:21:32.801,172799,117006,68067,2,477609,426215
2025-02-27 17:21:32.802,172867,117040,68112,6,477689,426385
2025-02-27 17:21:32.804,172934,117119,68165,3,477844,426528
2025-02-27 17:21:32.806,172999,117191,68232,0,478065,426655
2025-02-27 17:21:32.807,173081,117274,68286,2,478218,426904
2025-02-27 17:21:32.810,173131,117325,68339,7,478459,427077
2025-02-27 17:21:32.955,173218,117402,68394,4,478648,427317
2025-02-27 17:21:32.957,173275,117420,68415,5,478832,427485
2025-02-27 17:21:32.959,173345,117474,68459,3,478781,427413
2025-02-27 17:21:32.960,173412,117505,68485,4,478991,427582
2025-02-27 17:21:32.962,173459,117554,68501,2,479033,427713
2025-02-27 17:21:32.964,173507,117575,68515,3,479109,427774
2025-02-27 17:21:32.966,173526,117596,68522,4,479164,427805
2025-02-27 17:21:32.968,173578,117622,68545,3,479176,427883
2025-02-27 17:21:32.969,173613,117671,68579,3,479316,427973
2025-02-27 17:21:32.970,173655,117726,68615,2,479417,428033
2025-02-27 17:21:32.972,173692,117720,68609,3,479539,428217
2025-02-27 17:21:32.974,173676,117657,68562,4,479490,428105
2025-02-27 17:21:32.976,173668,117593,68506,2,479365,428006
2025-02-27 17:21:32.978,173606,117509,68448,3,479159,427876
2025-02-27 17:21:32.980,173599,117450,68388,2,478984,427714
2025-02-27 17:21:32.982,173554,117373,68343,1,478823,427609
2025-02-27 17:21:32.985,173522,117315,68290,3,478691,427423
2025-02-27 17:21:32.988,173478,117222,68230,5,478499,427330
2025-02-27 17:21:32.991,173431,117118,68174,6,478218,427000
2025-02-27 17:21:32.993,173405,117046,68138,3,477859,426839
2025-02-27 17:21:32.995,173367,116979,68097,4,477744,426668
2025-02-27 17:21:32.997,173345,116909,68055,3,477547,426540
2025-02-27 17:21:32.999,173303,116860,68019,4,477389,426397
2025-02-27 17:21:33.001,173287,116803,67983,2,477160,426262
2025-02-27 17:21:33.003,173284,116770,67949,4,477083,426118
2025-02-27 17:21:33.133,173261,116740,67930,5,476942,426089
2025-02-27 17:21:33.136,173261,116740,67930,5,476942,426089
2025-02-27 17:21:33.139,173250,116707,67906,4,476836,426065
2025-02-27 17:21:33.141,173251,116674,67889,5,476752,426078
2025-02-27 17:21:33.143,173260,116641,67878,4,476690,425973
2025-02-27 17:21:33.146,173238,116625,67861,2,476571,425941
2025-02-27 17:21:33.147,173237,116604,67849,3,476517,425798
2025-02-27 17:21:33.149,173227,116569,67840,4,476400,425770
2025-02-27 17:21:33.151,173199,116547,67836,2,476252,425696
2025-02-27 17:21:33.152,173111,116517,67830,2,476130,425503
2025-02-27 17:21:33.154,173029,116459,67815,5,476015,425371
2025-02-27 17:21:33.155,172874,116384,67781,3,475807,425246
2025-02-27 17:21:33.157,172703,116305,67746,4,475584,424889
2025-02-27 17:21:33.158,172500,116177,67709,3,475363,424643
2025-02-27 17:21:33.160,172347,116078,67673,2,475146,424316
2025-02-27 17:21:33.162,172209,115987,67639,5,474979,424079
2025-02-27 17:21:33.163,172111,115905,67608,4,474861,423925
2025-02-27 17:21:33.165,172032,115835,67583,3,474754,423779
2025-02-27 17:21:33.167,171989,115801,67568,5,474726,423729
2025-02-27 17:21:33.169,171979,115768,67565,4,474723,423676
2025-02-27 17:21:33.172,172010,115765,67568,2,474722,423738
2025-02-27 17:21:33.174,172010,115771,67584,7,474794,423766
2025-02-27 17:21:33.175,172068,115815,67609,4,474884,423962
2025-02-27 17:21:33.178,172111,115836,67640,5,475071,424046
2025-02-27 17:21:33.180,172166,115854,67652,2,475138,424140
2025-02-27 17:21:33.335,172194,115853,67655,4,475201,424264
2025-02-27 17:21:33.337,172249,115860,67650,3,475227,424231
2025-02-27 17:21:33.340,172275,115878,67659,3,475288,424312
2025-02-27 17:21:33.342,172308,115894,67676,1,475323,424400
2025-02-27 17:21:33.344,172359,115937,67696,3,475446,424497
2025-02-27 17:21:33.346,172402,115976,67736,4,475540,424588
2025-02-27 17:21:33.347,172456,116004,67757,5,475695,424749
2025-02-27 17:21:33.349,172515,116017,67772,1,475813,424886
2025-02-27 17:21:33.351,172538,116042,67775,4,475858,424913
2025-02-27 17:21:33.353,172579,116038,67777,6,475818,424972
2025-02-27 17:21:33.355,172617,116072,67781,4,475871,425006
2025-02-27 17:21:33.356,172650,116087,67807,6,475880,425085
2025-02-27 17:21:33.358,172659,116120,67823,8,475931,425190
2025-02-27 17:21:33.360,172683,116125,67831,3,476019,425177
2025-02-27 17:21:33.361,172654,116114,67826,4,476005,425179
2025-02-27 17:21:33.363,172639,116085,67806,6,475944,425137
2025-02-27 17:21:33.365,172615,116053,67782,5,475846,425095
2025-02-27 17:21:33.367,172582,116019,67763,1,475783,424982
2025-02-27 17:21:33.369,172543,115977,67732,4,475655,424893
2025-02-27 17:21:33.372,172516,115928,67708,1,475559,424806
2025-02-27 17:21:33.374,172501,115920,67701,8,475451,424709
2025-02-27 17:21:33.376,172477,115926,67704,5,475459,424760
2025-02-27 17:21:33.378,172478,115914,67698,4,475429,424741
2025-02-27 17:21:33.380,172473,115901,67710,2,475379,424711
2025-02-27 17:21:33.381,172488,115919,67712,4,475406,424723
2025-02-27 17:21:33.383,172494,115931,67711,3,475439,424806
2025-02-27 17:21:33.510,172512,115946,67736,2,475483,424859
2025-02-27 17:21:33.512,172562,115987,67763,3,475554,424995
2025-02-27 17:21:33.514,172579,115980,67783,2,475695,425150
2025-02-27 17:21:33.515,172593,116003,67788,4,475743,425221
2025-02-27 17:21:33.517,172608,116012,67804,2,475750,425254
2025-02-27 17:21:33.519,172660,116048,67828,5,475820,425323
2025-02-27 17:21:33.521,172704,116083,67860,3,475905,425440
2025-02-27 17:21:33.522,172751,116107,67888,4,475919,425529
2025-02-27 17:21:33.524,172786,116132,67904,2,475957,425549
2025-02-27 17:21:33.525,172800,116165,67929,5,476056,425668
2025-02-27 17:21:33.527,172829,116196,67952,4,476124,425688
2025-02-27 17:21:33.529,172850,116213,67957,4,476105,425754
2025-02-27 17:21:33.530,172883,116217,67960,4,476179,425796
2025-02-27 17:21:33.532,172903,116249,67979,3,476169,425814
2025-02-27 17:21:33.533,172925,116244,67997,6,476136,425875
2025-02-27 17:21:33.535,172935,116273,68014,4,476160,425874
2025-02-27 17:21:33.537,172959,116277,68029,5,476213,425918
2025-02-27 17:21:33.539,172948,116259,68019,5,476236,425956
2025-02-27 17:21:33.542,172929,116229,68001,3,476121,425872
2025-02-27 17:21:33.544,172927,116220,67990,4,475991,425778
2025-02-27 17:21:33.545,172929,116201,67979,3,475936,425732
2025-02-27 17:21:33.547,172923,116190,67978,3,475837,425702
2025-02-27 17:21:33.550,172928,116185,67978,7,475824,425596
2025-02-27 17:21:33.554,172937,116198,67992,2,475734,425642
2025-02-27 17:21:33.556,172944,116196,68008,3,475758,425631
2025-02-27 17:21:33.558,172959,116213,68017,4,475698,425647
2025-02-27 17:21:33.700,172954,116236,68043,5,475689,425625
2025-02-27 17:21:33.701,172991,116287,68082,6,475704,425655
2025-02-27 17:21:33.703,173029,116336,68127,5,475812,425801
2025-02-27 17:21:33.705,173066,116376,68149,2,475861,425845
2025-02-27 17:21:33.706,173088,116413,68167,3,475945,425942
2025-02-27 17:21:33.708,173088,116413,68167,3,475945,425942
2025-02-27 17:21:33.710,173145,116448,68198,6,476036,426013
2025-02-27 17:21:33.711,173162,116464,68213,2,476014,426053
2025-02-27 17:21:33.713,173184,116482,68223,4,475989,426081
2025-02-27 17:21:33.714,173161,116473,68218,5,475978,426038
2025-02-27 17:21:33.715,173106,116468,68217,4,475886,425940
2025-02-27 17:21:33.717,173045,116443,68212,4,475806,425861
2025-02-27 17:21:33.718,172933,116386,68192,3,475761,425795
2025-02-27 17:21:33.720,172762,116319,68168,3,475635,425639
2025-02-27 17:21:33.721,172605,116221,68129,3,475401,425375
2025-02-27 17:21:33.723,172451,116142,68103,3,475259,425076
2025-02-27 17:21:33.724,172306,116059,68068,5,475033,424880
2025-02-27 17:21:33.725,172201,115987,68045,3,474909,424706
2025-02-27 17:21:33.727,172119,115936,68031,4,474756,424542
2025-02-27 17:21:33.729,172076,115896,68006,4,474754,424415
2025-02-27 17:21:33.732,172044,115872,68003,2,474687,424401
2025-02-27 17:21:33.734,172064,115840,67997,4,474642,424395
2025-02-27 17:21:33.736,172051,115820,67980,5,474662,424349
2025-02-27 17:21:33.738,172065,115794,67978,6,474660,424326
2025-02-27 17:21:33.740,172100,115801,67968,3,474618,424286
2025-02-27 17:21:33.742,172128,115795,67959,2,474598,424324
2025-02-27 17:21:33.745,172170,115788,67973,5,474639,424453
2025-02-27 17:21:33.746,172195,115805,67975,4,474664,424504
2025-02-27 17:21:33.748,172215,115815,67980,5,474697,424560
2025-02-27 17:21:33.868,172261,115830,67989,2,474726,424559
2025-02-27 17:21:33.870,172287,115834,67985,5,474731,424640
2025-02-27 17:21:33.872,172312,115835,67993,2,474743,424631
2025-02-27 17:21:33.873,172344,115833,68001,2,474719,424623
2025-02-27 17:21:33.875,172406,115870,68025,2,474745,424636
2025-02-27 17:21:33.877,172471,115922,68057,3,474753,424732
2025-02-27 17:21:33.878,172501,115951,68078,3,474819,424884
2025-02-27 17:21:33.880,172531,115959,68093,1,474814,424940
2025-02-27 17:21:33.881,172528,115949,68093,4,474893,424898
2025-02-27 17:21:33.883,172533,115954,68093,4,474773,424842
2025-02-27 17:21:33.884,172531,115963,68093,6,474742,424800
2025-02-27 17:21:33.886,172506,115964,68104,3,474742,424768
2025-02-27 17:21:33.887,172499,115976,68107,1,474675,424753
2025-02-27 17:21:33.889,172468,115980,68133,4,474707,424748
2025-02-27 17:21:33.890,172447,115986,68145,5,474665,424753
2025-02-27 17:21:33.892,172422,115993,68184,6,474653,424678
2025-02-27 17:21:33.894,172417,116031,68221,5,474781,424714
2025-02-27 17:21:33.896,172403,116037,68252,6,474783,424776
2025-02-27 17:21:33.899,172406,116077,68295,4,474713,424860
2025-02-27 17:21:33.901,172416,116119,68316,2,474855,424927
2025-02-27 17:21:33.903,172427,116119,68337,4,474873,424888
2025-02-27 17:21:33.904,172440,116139,68367,2,474892,424975
2025-02-27 17:21:33.906,172455,116165,68387,1,474899,425012
2025-02-27 17:21:33.908,172460,116202,68418,3,474926,424974
2025-02-27 17:21:33.910,172530,116243,68450,5,474967,425108
2025-02-27 17:21:33.912,172561,116302,68478,5,475079,425205
2025-02-27 17:21:33.914,172608,116359,68517,3,475223,425348
2025-02-27 17:21:33.915,172661,116414,68560,6,475333,425504
2025-02-27 17:21:34.052,172699,116454,68589,4,475417,425592
2025-02-27 17:21:34.053,172733,116475,68617,5,475512,425706
2025-02-27 17:21:34.055,172750,116504,68633,3,475592,425767
2025-02-27 17:21:34.057,172766,116518,68652,3,475583,425800
2025-02-27 17:21:34.058,172815,116543,68670,5,475570,425811
2025-02-27 17:21:34.060,172825,116543,68664,4,475551,425831
2025-02-27 17:21:34.062,172820,116471,68630,4,475477,425849
2025-02-27 17:21:34.064,172799,116428,68595,3,475258,425640
2025-02-27 17:21:34.065,172756,116336,68545,4,475042,425437
2025-02-27 17:21:34.067,172756,116336,68545,4,475042,425437
2025-02-27 17:21:34.068,172691,116220,68502,6,474460,424898
2025-02-27 17:21:34.070,172677,116214,68504,5,474253,424782
2025-02-27 17:21:34.071,172696,116221,68535,2,474115,424707
2025-02-27 17:21:34.073,172714,116272,68581,5,474105,424724
2025-02-27 17:21:34.075,172753,116369,68654,4,474217,424915
2025-02-27 17:21:34.076,172780,116403,68700,4,474344,425015
2025-02-27 17:21:34.078,172815,116460,68733,4,474456,425085
2025-02-27 17:21:34.080,172843,116502,68769,6,474559,425203
2025-02-27 17:21:34.084,172844,116541,68794,4,474598,425290
2025-02-27 17:21:34.086,172869,116554,68820,4,474647,425288
2025-02-27 17:21:34.088,172869,116585,68846,6,474577,425348
2025-02-27 17:21:34.090,172854,116599,68866,1,474633,425301
2025-02-27 17:21:34.091,172785,116585,68865,3,474539,425253
2025-02-27 17:21:34.093,172709,116552,68865,5,474468,425177
2025-02-27 17:21:34.095,172600,116515,68875,1,474331,425025
2025-02-27 17:21:34.096,172446,116478,68872,7,474192,424898
2025-02-27 17:21:34.098,172263,116427,68876,3,474125,424699
2025-02-27 17:21:34.100,172112,116373,68864,6,474009,424558
2025-02-27 17:21:34.220,171968,116291,68843,4,473939,424413
2025-02-27 17:21:34.222,171835,116210,68816,4,473825,424261
2025-02-27 17:21:34.224,171742,116132,68795,6,473755,424124
2025-02-27 17:21:34.226,171604,115935,68679,4,473594,424008
2025-02-27 17:21:34.227,171618,115971,68707,5,473165,423548
2025-02-27 17:21:34.229,171626,115968,68718,3,473368,423687
2025-02-27 17:21:34.231,171641,115993,68728,4,473392,423737
2025-02-27 17:21:34.233,171667,116028,68755,3,473533,423852
2025-02-27 17:21:34.234,171713,116037,68777,3,473641,423980
2025-02-27 17:21:34.236,171765,116079,68800,2,473749,424047
2025-02-27 17:21:34.237,171801,116094,68818,3,473849,424165
2025-02-27 17:21:34.239,171848,116127,68837,5,473864,424273
2025-02-27 17:21:34.240,171895,116130,68841,1,473982,424368
2025-02-27 17:21:34.242,171924,116140,68868,3,474007,424398
2025-02-27 17:21:34.245,171991,116184,68882,4,474074,424494
2025-02-27 17:21:34.247,171996,116233,68926,5,474166,424564
2025-02-27 17:21:34.249,172058,116265,68943,4,474200,424677
2025-02-27 17:21:34.251,172121,116333,68994,2,474382,424830
2025-02-27 17:21:34.254,172189,116365,69022,5,474600,424979
2025-02-27 17:21:34.257,172245,116408,69051,7,474651,425142
2025-02-27 17:21:34.260,172282,116449,69079,5,474698,425263
2025-02-27 17:21:34.263,172318,116478,69102,4,474813,425298
2025-02-27 17:21:34.265,172367,116513,69122,4,474881,425379
2025-02-27 17:21:34.268,172369,116527,69138,2,474929,425376
2025-02-27 17:21:34.414,172368,116543,69171,3,474878,425440
2025-02-27 17:21:34.416,172372,116569,69181,6,474898,425405
2025-02-27 17:21:34.418,172367,116574,69194,4,474973,425445
2025-02-27 17:21:34.419,172361,116580,69199,1,474925,425403
2025-02-27 17:21:34.421,172322,116581,69212,5,474885,425334
2025-02-27 17:21:34.423,172343,116573,69208,1,474877,425386
2025-02-27 17:21:34.425,172330,116555,69211,3,474810,425286
2025-02-27 17:21:34.427,172336,116574,69223,5,474835,425336
2025-02-27 17:21:34.428,172338,116557,69228,3,474817,425316
2025-02-27 17:21:34.430,172333,116554,69224,6,474729,425278
2025-02-27 17:21:34.432,172355,116574,69228,1,474725,425243
2025-02-27 17:21:34.434,172373,116591,69248,2,474760,425302
2025-02-27 17:21:34.435,172413,116638,69275,4,474746,425428
2025-02-27 17:21:34.437,172454,116669,69295,5,474864,425481
2025-02-27 17:21:34.439,172490,116684,69311,3,474992,425573
2025-02-27 17:21:34.441,172528,116727,69331,3,475039,425651
2025-02-27 17:21:34.442,172584,116769,69352,3,475089,425727
2025-02-27 17:21:34.444,172627,116811,69375,4,475121,425849
2025-02-27 17:21:34.447,172650,116824,69384,2,475231,425915
2025-02-27 17:21:34.450,172678,116857,69386,4,475336,425978
2025-02-27 17:21:34.452,172717,116881,69404,5,475333,426003
2025-02-27 17:21:34.453,172744,116886,69398,6,475383,426097
2025-02-27 17:21:34.455,172768,116927,69426,4,475390,426117
2025-02-27 17:21:34.457,172799,116951,69445,3,475442,426157
2025-02-27 17:21:34.459,172835,116973,69460,6,475468,426233
2025-02-27 17:21:34.461,172842,117008,69475,5,475495,426205
2025-02-27 17:21:34.462,172883,117025,69496,2,475536,426242
2025-02-27 17:21:34.587,172908,117044,69507,4,475525,426265
2025-02-27 17:21:34.589,172924,117069,69519,2,475518,426329
2025-02-27 17:21:34.591,172946,117088,69540,4,475571,426370
2025-02-27 17:21:34.593,172980,117116,69545,3,475581,426354
2025-02-27 17:21:34.595,172969,117113,69554,5,475605,426400
2025-02-27 17:21:34.597,172990,117124,69565,5,475494,426386
2025-02-27 17:21:34.598,173007,117138,69573,4,475544,426346
2025-02-27 17:21:34.600,173048,117169,69591,4,475558,426412
2025-02-27 17:21:34.602,173061,117194,69609,4,475556,426426
2025-02-27 17:21:34.604,173091,117231,69624,5,475592,426483
2025-02-27 17:21:34.606,173114,117283,69655,4,475621,426574
2025-02-27 17:21:34.607,173114,117283,69655,4,475621,426574
2025-02-27 17:21:34.609,173109,117333,69694,4,475758,426649
2025-02-27 17:21:34.611,173050,117341,69688,4,475744,426682
2025-02-27 17:21:34.612,172961,117300,69688,3,475788,426623
2025-02-27 17:21:34.614,172818,117230,69670,3,475662,426466
2025-02-27 17:21:34.616,172642,117161,69647,2,475552,426308
2025-02-27 17:21:34.620,172502,117102,69634,5,475409,426135
2025-02-27 17:21:34.623,172349,117023,69609,3,475365,425953
2025-02-27 17:21:34.625,172230,116939,69564,0,475263,425808
2025-02-27 17:21:34.626,172140,116858,69529,6,475182,425629
2025-02-27 17:21:34.628,172075,116797,69498,5,475049,425526
2025-02-27 17:21:34.631,172004,116711,69453,3,474967,425437
2025-02-27 17:21:34.633,171964,116628,69405,7,474879,425269
2025-02-27 17:21:34.636,171965,116576,69391,4,474749,425126
2025-02-27 17:21:34.776,171968,116564,69378,5,474695,425059
2025-02-27 17:21:34.778,171993,116584,69400,6,474678,425128
2025-02-27 17:21:34.780,172060,116595,69411,2,474815,425230
2025-02-27 17:21:34.781,172085,116607,69417,3,474848,425304
2025-02-27 17:21:34.784,172082,116594,69408,2,474883,425353
2025-02-27 17:21:34.786,172126,116577,69408,3,474862,425352
2025-02-27 17:21:34.788,172148,116572,69401,2,474840,425336
2025-02-27 17:21:34.790,172157,116567,69405,4,474890,425337
2025-02-27 17:21:34.791,172186,116574,69410,4,474831,425344
2025-02-27 17:21:34.792,172217,116598,69431,2,474899,425402
2025-02-27 17:21:34.794,172252,116611,69451,4,474954,425495
2025-02-27 17:21:34.796,172322,116636,69469,4,475068,425558
2025-02-27 17:21:34.800,172345,116636,69469,5,475022,425631
2025-02-27 17:21:34.802,172403,116658,69478,5,475043,425687
2025-02-27 17:21:34.804,172441,116669,69502,4,475149,425691
2025-02-27 17:21:34.806,172470,116706,69514,5,475184,425786
2025-02-27 17:21:34.808,172500,116734,69529,4,475178,425849
2025-02-27 17:21:34.809,172511,116752,69548,4,475243,425884
2025-02-27 17:21:34.811,172523,116776,69561,5,475285,425885
2025-02-27 17:21:34.812,172525,116777,69566,6,475250,425880
2025-02-27 17:21:34.815,172497,116780,69566,5,475257,425818
2025-02-27 17:21:34.817,172494,116737,69558,4,475202,425798
2025-02-27 17:21:34.819,172480,116737,69549,3,475151,425766
2025-02-27 17:21:34.821,172460,116715,69548,4,475064,425670
2025-02-27 17:21:34.823,172451,116719,69539,5,475040,425605
2025-02-27 17:21:35.030,172467,116712,69543,4,475006,425590
2025-02-27 17:21:35.032,172466,116697,69539,4,474927,425577
2025-02-27 17:21:35.034,172458,116697,69531,2,474932,425589
2025-02-27 17:21:35.036,172457,116683,69541,6,474973,425543
2025-02-27 17:21:35.037,172469,116702,69534,5,474885,425538
2025-02-27 17:21:35.039,172495,116700,69546,5,474916,425527
2025-02-27 17:21:35.041,172524,116724,69560,0,474905,425641
2025-02-27 17:21:35.043,172558,116769,69584,5,474963,425713
2025-02-27 17:21:35.044,172600,116797,69617,4,475004,425736
2025-02-27 17:21:35.046,172647,116851,69646,4,475159,425857
2025-02-27 17:21:35.047,172684,116894,69673,5,475195,425979
2025-02-27 17:21:35.049,172712,116924,69717,5,475314,426027
2025-02-27 17:21:35.051,172769,116978,69746,3,475427,426177
2025-02-27 17:21:35.052,172825,117036,69787,4,475481,426279
2025-02-27 17:21:35.054,172831,117055,69806,3,475583,426334
2025-02-27 17:21:35.055,172872,117086,69820,3,475600,426420
2025-02-27 17:21:35.057,172887,117082,69807,3,475619,426436
2025-02-27 17:21:35.059,172873,117068,69797,4,475579,426411
2025-02-27 17:21:35.061,172881,117061,69780,3,475498,426322
2025-02-27 17:21:35.064,172894,117036,69775,5,475430,426253
2025-02-27 17:21:35.066,172890,117041,69782,2,475401,426232
2025-02-27 17:21:35.067,172892,117048,69788,3,475297,426208
2025-02-27 17:21:35.069,172918,117068,69807,1,475275,426202
2025-02-27 17:21:35.071,172934,117114,69823,2,475332,426238
2025-02-27 17:21:35.073,172943,117127,69840,2,475366,426306
2025-02-27 17:21:35.076,172964,117146,69856,6,475426,426323
2025-02-27 17:21:35.077,172971,117163,69860,3,475378,426360
2025-02-27 17:21:35.078,172987,117183,69882,4,475433,426396
2025-02-27 17:21:35.214,173016,117219,69894,1,475462,426429
2025-02-27 17:21:35.216,173040,117257,69919,3,475478,426430
2025-02-27 17:21:35.217,173053,117286,69955,5,475505,426534
2025-02-27 17:21:35.219,173088,117306,69972,4,475566,426579
2025-02-27 17:21:35.221,173106,117317,69983,2,475641,426608
2025-02-27 17:21:35.222,173127,117342,70014,3,475626,426623
2025-02-27 17:21:35.224,173133,117388,70031,2,475664,426648
2025-02-27 17:21:35.226,173143,117421,70057,3,475694,426686
2025-02-27 17:21:35.227,173118,117443,70085,5,475712,426716
2025-02-27 17:21:35.229,173094,117472,70115,2,475775,426786
2025-02-27 17:21:35.230,172981,117471,70137,4,475938,426900
2025-02-27 17:21:35.232,172847,117458,70163,3,475929,426835
2025-02-27 17:21:35.235,172704,117427,70156,3,476024,426780
2025-02-27 17:21:35.236,172704,117427,70156,3,476024,426780
2025-02-27 17:21:35.237,172704,117427,70156,3,476024,426780
2025-02-27 17:21:35.239,172561,117329,70128,3,475958,426604
2025-02-27 17:21:35.241,172408,117227,70076,4,475786,426377
2025-02-27 17:21:35.242,172303,117102,70013,6,475637,426159
2025-02-27 17:21:35.246,172192,116999,69959,1,475462,425911
2025-02-27 17:21:35.248,172136,116880,69893,4,475331,425769
2025-02-27 17:21:35.250,172100,116779,69825,5,475098,425566
2025-02-27 17:21:35.252,172055,116703,69776,4,474975,425396
2025-02-27 17:21:35.254,172044,116653,69742,3,474866,425313
2025-02-27 17:21:35.255,172048,116611,69731,3,474771,425274
2025-02-27 17:21:35.257,172083,116600,69720,6,474764,425226
2025-02-27 17:21:35.260,172112,116607,69722,4,474768,425297
2025-02-27 17:21:35.261,172140,116586,69711,5,474810,425260
2025-02-27 17:21:35.381,172134,116564,69686,3,474814,425338
2025-02-27 17:21:35.382,172120,116532,69658,6,474754,425305
2025-02-27 17:21:35.385,172159,116503,69648,4,474681,425302
2025-02-27 17:21:35.386,172169,116499,69634,2,474669,425238
2025-02-27 17:21:35.388,172173,116482,69641,4,474641,425255
2025-02-27 17:21:35.390,172206,116499,69651,3,474749,425320
2025-02-27 17:21:35.392,172250,116522,69661,3,474789,425394
2025-02-27 17:21:35.393,172295,116550,69690,5,474860,425476
2025-02-27 17:21:35.395,172295,116550,69690,5,474860,425476
2025-02-27 17:21:35.396,172295,116550,69690,5,474860,425476
2025-02-27 17:21:35.398,172419,116614,69729,6,475094,425754
2025-02-27 17:21:35.399,172443,116627,69734,4,475084,425760
2025-02-27 17:21:35.401,172460,116622,69725,5,475046,425768
2025-02-27 17:21:35.402,172443,116610,69705,2,475058,425695
2025-02-27 17:21:35.404,172429,116580,69692,4,474964,425713
2025-02-27 17:21:35.405,172410,116553,69663,3,474863,425588
2025-02-27 17:21:35.407,172384,116519,69647,5,474823,425517
2025-02-27 17:21:35.409,172367,116498,69642,4,474718,425384
2025-02-27 17:21:35.412,172364,116471,69639,2,474688,425371
2025-02-27 17:21:35.414,172356,116481,69652,4,474645,425355
2025-02-27 17:21:35.415,172350,116495,69682,5,474675,425378
2025-02-27 17:21:35.417,172386,116533,69703,4,474750,425450
2025-02-27 17:21:35.419,172384,116564,69730,4,474797,425501
2025-02-27 17:21:35.421,172419,116576,69731,7,474835,425528
2025-02-27 17:21:35.423,172418,116581,69752,4,474887,425598
2025-02-27 17:21:35.425,172452,116583,69745,6,474907,425647
2025-02-27 17:21:35.426,172448,116570,69743,6,474922,425682
2025-02-27 17:21:35.428,172477,116580,69750,5,474911,425637
2025-02-27 17:21:35.429,172515,116601,69756,5,474930,425631
2025-02-27 17:21:35.572,172538,116608,69769,2,474971,425721
2025-02-27 17:21:35.574,172553,116613,69764,5,475001,425819
2025-02-27 17:21:35.576,172584,116624,69779,1,474980,425808
2025-02-27 17:21:35.577,172605,116645,69802,2,474962,425854
2025-02-27 17:21:35.579,172641,116670,69825,1,475050,425919
2025-02-27 17:21:35.581,172682,116725,69848,6,475115,425982
2025-02-27 17:21:35.582,172705,116757,69873,3,475214,426085
2025-02-27 17:21:35.584,172736,116779,69894,6,475253,426138
2025-02-27 17:21:35.585,172760,116798,69921,3,475368,426242
2025-02-27 17:21:35.587,172771,116811,69911,4,475330,426263
2025-02-27 17:21:35.588,172788,116815,69906,1,475277,426197
2025-02-27 17:21:35.590,172802,116814,69908,4,475259,426207
2025-02-27 17:21:35.591,172805,116801,69903,4,475227,426209
2025-02-27 17:21:35.593,172806,116784,69907,5,475178,426157
2025-02-27 17:21:35.594,172803,116786,69909,5,475128,426095
2025-02-27 17:21:35.596,172802,116802,69914,3,475091,426080
2025-02-27 17:21:35.597,172817,116813,69930,4,475071,426082
2025-02-27 17:21:35.599,172825,116820,69930,4,475068,426135
2025-02-27 17:21:35.601,172837,116841,69956,6,475054,426078
2025-02-27 17:21:35.603,172856,116873,69978,5,475081,426127
2025-02-27 17:21:35.605,172875,116905,69996,3,475164,426189
2025-02-27 17:21:35.607,172880,116919,69999,5,475138,426261
2025-02-27 17:21:35.608,172901,116948,70012,4,475182,426228
2025-02-27 17:21:35.610,172916,116965,70016,6,475249,426277
2025-02-27 17:21:35.611,172950,116976,70042,6,475228,426365
2025-02-27 17:21:35.613,172977,117018,70053,5,475295,426384
2025-02-27 17:21:35.615,172979,117031,70070,6,475299,426413
2025-02-27 17:21:35.617,173006,117054,70079,6,475321,426450
2025-02-27 17:21:35.618,173028,117063,70093,3,475371,426556
2025-02-27 17:21:35.619,173043,117096,70098,3,475410,426553
2025-02-27 17:21:35.621,173031,117101,70103,4,475338,426557
2025-02-27 17:21:35.737,173012,117106,70107,4,475277,426488
2025-02-27 17:21:35.739,172963,117105,70112,2,475269,426496
2025-02-27 17:21:35.740,172881,117080,70105,5,475354,426515
2025-02-27 17:21:35.742,172728,117005,70075,4,475292,426430
2025-02-27 17:21:35.744,172549,116898,70016,6,475129,426219
2025-02-27 17:21:35.746,172373,116775,69972,2,474889,425929
2025-02-27 17:21:35.747,172203,116652,69897,5,474691,425656
2025-02-27 17:21:35.749,172066,116513,69819,3,474555,425415
2025-02-27 17:21:35.751,171935,116354,69729,4,474282,425088
2025-02-27 17:21:35.752,171829,116210,69648,5,474047,424801
2025-02-27 17:21:35.754,171829,116210,69648,5,474047,424801
2025-02-27 17:21:35.755,171711,116010,69517,5,473595,424387
2025-02-27 17:21:35.757,171698,115958,69469,2,473498,424310
2025-02-27 17:21:35.758,171718,115914,69446,5,473456,424252
2025-02-27 17:21:35.760,171721,115873,69410,5,473433,424241
2025-02-27 17:21:35.761,171710,115821,69367,6,473384,424217
2025-02-27 17:21:35.762,171723,115771,69334,2,473357,424154
2025-02-27 17:21:35.764,171715,115725,69297,3,473203,424094
2025-02-27 17:21:35.766,171711,115688,69284,3,473161,424074
2025-02-27 17:21:35.769,171726,115675,69273,7,473139,424057
2025-02-27 17:21:35.771,171734,115686,69267,1,473177,424069
2025-02-27 17:21:35.773,171765,115670,69274,5,473192,424131
2025-02-27 17:21:35.774,171793,115699,69285,4,473215,424185
2025-02-27 17:21:35.775,171819,115698,69294,3,473268,424237
2025-02-27 17:21:35.777,171865,115728,69315,3,473325,424316
2025-02-27 17:21:35.779,171916,115734,69323,5,473399,424454
2025-02-27 17:21:35.781,171935,115751,69337,4,473503,424504
2025-02-27 17:21:35.782,171979,115772,69352,4,473510,424573
2025-02-27 17:21:35.783,172006,115803,69362,1,473566,424612
2025-02-27 17:21:35.785,172035,115819,69390,4,473614,424670
2025-02-27 17:21:35.921,172038,115853,69400,3,473662,424716
2025-02-27 17:21:35.923,172058,115834,69400,5,473680,424728
2025-02-27 17:21:35.924,172028,115821,69389,3,473708,424750
2025-02-27 17:21:35.926,172032,115814,69393,4,473619,424647
2025-02-27 17:21:35.928,172023,115824,69405,4,473643,424651
2025-02-27 17:21:35.930,172011,115815,69410,6,473613,424631
2025-02-27 17:21:35.932,171983,115790,69406,4,473636,424648
2025-02-27 17:21:35.933,172009,115806,69407,2,473582,424638
2025-02-27 17:21:35.935,172025,115801,69419,4,473579,424623
2025-02-27 17:21:35.937,172012,115815,69420,2,473625,424638
2025-02-27 17:21:35.938,172037,115833,69434,2,473607,424655
2025-02-27 17:21:35.940,172060,115832,69439,4,473651,424708
2025-02-27 17:21:35.942,172077,115862,69444,1,473671,424761
2025-02-27 17:21:35.944,172104,115860,69452,6,473700,424788
2025-02-27 17:21:35.945,172111,115843,69437,6,473678,424787
2025-02-27 17:21:35.947,172121,115851,69420,2,473710,424792
2025-02-27 17:21:35.949,172150,115834,69416,2,473679,424774
2025-02-27 17:21:35.951,172165,115839,69418,2,473659,424836
2025-02-27 17:21:35.955,172193,115829,69425,4,473606,424838
2025-02-27 17:21:35.958,172225,115846,69444,2,473676,424889
2025-02-27 17:21:35.961,172251,115897,69457,5,473762,424947
2025-02-27 17:21:35.962,172278,115927,69479,7,473806,425050
2025-02-27 17:21:35.965,172304,115943,69499,8,473880,425079
2025-02-27 17:21:35.967,172331,115950,69493,3,473838,425132
2025-02-27 17:21:35.969,172371,115967,69498,5,473884,425160
2025-02-27 17:21:36.088,172357,115974,69502,5,473917,425124
2025-02-27 17:21:36.090,172365,115962,69501,2,473862,425142
2025-02-27 17:21:36.091,172389,115968,69506,3,473832,425151
2025-02-27 17:21:36.093,172391,115979,69511,2,473800,425150
2025-02-27 17:21:36.095,172408,116002,69534,3,473868,425165
2025-02-27 17:21:36.096,172421,116010,69536,3,473834,425176
2025-02-27 17:21:36.098,172431,116025,69545,4,473840,425243
2025-02-27 17:21:36.099,172432,116027,69541,2,473866,425164
2025-02-27 17:21:36.101,172424,116026,69547,5,473814,425140
2025-02-27 17:21:36.102,172444,116049,69563,3,473797,425117
2025-02-27 17:21:36.104,172472,116084,69599,2,473780,425155
2025-02-27 17:21:36.105,172490,116126,69620,2,473843,425258
2025-02-27 17:21:36.107,172504,116137,69645,4,473950,425290
2025-02-27 17:21:36.108,172526,116170,69655,6,473966,425369
2025-02-27 17:21:36.110,172529,116188,69667,8,473947,425368
2025-02-27 17:21:36.111,172546,116207,69680,4,473989,425346
2025-02-27 17:21:36.113,172546,116207,69680,4,473989,425346
2025-02-27 17:21:36.114,172572,116237,69712,5,473938,425368
2025-02-27 17:21:36.116,172605,116274,69729,3,474015,425409
2025-02-27 17:21:36.119,172627,116321,69753,5,474049,425542
2025-02-27 17:21:36.121,172671,116333,69764,3,474135,425550
2025-02-27 17:21:36.122,172691,116363,69775,3,474142,425605
2025-02-27 17:21:36.124,172721,116405,69796,3,474225,425636
2025-02-27 17:21:36.126,172740,116438,69810,4,474236,425796
2025-02-27 17:21:36.127,172747,116454,69828,3,474335,425806
2025-02-27 17:21:36.129,172718,116454,69831,4,474275,425801
2025-02-27 17:21:36.131,172671,116448,69826,4,474264,425732
2025-02-27 17:21:36.132,172567,116400,69800,4,474249,425724
2025-02-27 17:21:36.133,172427,116333,69771,5,474158,425611
2025-02-27 17:21:36.134,172246,116252,69733,4,474029,425400
2025-02-27 17:21:36.136,172077,116138,69686,4,473864,425197
2025-02-27 17:21:36.266,171906,116036,69631,2,473686,424967
2025-02-27 17:21:36.268,171794,115908,69580,2,473565,424822
2025-02-27 17:21:36.269,171695,115813,69525,4,473405,424582
2025-02-27 17:21:36.271,171611,115719,69462,2,473261,424404
2025-02-27 17:21:36.273,171557,115628,69400,4,473147,424228
2025-02-27 17:21:36.275,171521,115534,69353,2,473052,424101
2025-02-27 17:21:36.276,171503,115494,69321,3,472871,424009
2025-02-27 17:21:36.278,171506,115445,69296,3,472905,423917
2025-02-27 17:21:36.280,171511,115406,69260,2,472890,423952
2025-02-27 17:21:36.281,171519,115355,69231,4,472800,423881
2025-02-27 17:21:36.283,171510,115294,69168,2,472760,423823
2025-02-27 17:21:36.285,171520,115239,69142,2,472640,423758
2025-02-27 17:21:36.286,171531,115206,69103,2,472525,423717
2025-02-27 17:21:36.288,171541,115186,69103,5,472493,423671
2025-02-27 17:21:36.289,171546,115184,69102,4,472469,423703
2025-02-27 17:21:36.291,171560,115193,69113,3,472507,423740
2025-02-27 17:21:36.292,171618,115218,69108,4,472563,423784
2025-02-27 17:21:36.294,171657,115224,69118,1,472594,423847
2025-02-27 17:21:36.297,171692,115250,69128,5,472666,423968
2025-02-27 17:21:36.299,171722,115248,69126,4,472785,424049
2025-02-27 17:21:36.302,171753,115233,69113,4,472801,424055
2025-02-27 17:21:36.303,171768,115222,69103,4,472705,424021
2025-02-27 17:21:36.305,171782,115227,69101,4,472724,424040
2025-02-27 17:21:36.307,171787,115238,69098,6,472690,424063
2025-02-27 17:21:36.312,171780,115235,69106,5,472676,423995
2025-02-27 17:21:36.314,171785,115224,69104,2,472708,424029
2025-02-27 17:21:36.431,171772,115218,69104,4,472714,423963
2025-02-27 17:21:36.433,171760,115216,69109,5,472619,423961
2025-02-27 17:21:36.435,171748,115209,69103,2,472589,423921
2025-02-27 17:21:36.437,171725,115184,69089,1,472570,423948
2025-02-27 17:21:36.438,171705,115165,69072,5,472503,423879
2025-02-27 17:21:36.440,171716,115143,69075,4,472417,423768
2025-02-27 17:21:36.442,171713,115136,69074,2,472379,423786
2025-02-27 17:21:36.444,171716,115162,69099,4,472435,423771
2025-02-27 17:21:36.445,171747,115183,69113,3,472516,423885
2025-02-27 17:21:36.447,171781,115231,69132,3,472590,423947
2025-02-27 17:21:36.448,171803,115252,69158,4,472603,423979
2025-02-27 17:21:36.450,171844,115294,69174,1,472690,424111
2025-02-27 17:21:36.451,171855,115314,69185,4,472751,424170
2025-02-27 17:21:36.453,171901,115316,69190,3,472810,424186
2025-02-27 17:21:36.455,171918,115347,69200,7,472813,424287
2025-02-27 17:21:36.456,171960,115377,69224,1,472879,424329
2025-02-27 17:21:36.458,171983,115397,69240,1,472963,424395
2025-02-27 17:21:36.459,172024,115431,69248,4,473039,424453
2025-02-27 17:21:36.462,172047,115431,69246,4,473084,424556
2025-02-27 17:21:36.463,172052,115445,69246,2,473091,424582
2025-02-27 17:21:36.465,172074,115442,69254,3,473027,424579
2025-02-27 17:21:36.467,172104,115460,69253,4,473044,424611
2025-02-27 17:21:36.468,172135,115484,69279,4,473071,424543
2025-02-27 17:21:36.470,172170,115521,69294,4,473105,424617
2025-02-27 17:21:36.471,172173,115555,69314,4,473189,424737
2025-02-27 17:21:36.473,172207,115586,69325,5,473251,424784
2025-02-27 17:21:36.475,172201,115580,69320,3,473241,424809
2025-02-27 17:21:36.476,172212,115558,69312,4,473195,424773
2025-02-27 17:21:36.477,172200,115555,69316,4,473089,424726
2025-02-27 17:21:36.478,172222,115566,69313,2,473047,424691
2025-02-27 17:21:36.480,172215,115581,69333,4,473026,424721
2025-02-27 17:21:36.613,172246,115597,69341,4,473074,424678
2025-02-27 17:21:36.615,172259,115624,69355,1,473062,424714
2025-02-27 17:21:36.616,172264,115659,69376,4,473071,424763
2025-02-27 17:21:36.618,172280,115686,69398,4,473167,424785
2025-02-27 17:21:36.620,172289,115715,69412,5,473185,424857
2025-02-27 17:21:36.621,172290,115710,69413,3,473212,424826
2025-02-27 17:21:36.623,172308,115710,69413,3,473157,424809
2025-02-27 17:21:36.625,172325,115722,69418,4,473097,424812
2025-02-27 17:21:36.627,172329,115731,69415,3,473055,424765
2025-02-27 17:21:36.628,172329,115731,69415,3,473055,424765
2025-02-27 17:21:36.629,172346,115750,69423,3,472937,424731
2025-02-27 17:21:36.631,172385,115775,69437,2,473006,424735
2025-02-27 17:21:36.632,172417,115817,69461,4,472951,424842
2025-02-27 17:21:36.634,172457,115874,69490,2,473075,424902
2025-02-27 17:21:36.635,172493,115919,69524,3,473231,425029
2025-02-27 17:21:36.637,172523,115974,69549,5,473288,425142
2025-02-27 17:21:36.638,172538,116012,69566,4,473380,425258
2025-02-27 17:21:36.640,172505,116001,69564,5,473431,425260
2025-02-27 17:21:36.641,172441,115981,69545,5,473356,425191
2025-02-27 17:21:36.644,172325,115911,69509,6,473314,425126
2025-02-27 17:21:36.646,172164,115813,69469,4,473123,424915
2025-02-27 17:21:36.648,171998,115718,69429,2,472940,424679
2025-02-27 17:21:36.650,171817,115634,69396,1,472764,424451
2025-02-27 17:21:36.651,171679,115536,69354,5,472642,424239
2025-02-27 17:21:36.653,171571,115462,69314,4,472562,424083
2025-02-27 17:21:36.655,171471,115382,69281,4,472519,423946
2025-02-27 17:21:36.657,171407,115313,69234,3,472392,423826
2025-02-27 17:21:36.658,171382,115255,69205,2,472340,423727
2025-02-27 17:21:36.660,171361,115191,69171,6,472287,423703
2025-02-27 17:21:36.661,171361,115169,69156,4,472287,423672
2025-02-27 17:21:36.776,171373,115183,69164,5,472290,423710
2025-02-27 17:21:36.778,171428,115208,69170,4,472377,423769
2025-02-27 17:21:36.780,171471,115213,69181,4,472573,423981
2025-02-27 17:21:36.782,171502,115196,69159,3,472625,424043
2025-02-27 17:21:36.783,171488,115149,69111,5,472568,423992
2025-02-27 17:21:36.785,171484,115053,69074,6,472438,423888
2025-02-27 17:21:36.787,171482,115019,69053,5,472246,423720
2025-02-27 17:21:36.789,171512,115028,69070,4,472264,423702
2025-02-27 17:21:36.790,171542,115068,69097,7,472282,423734
2025-02-27 17:21:36.792,171601,115118,69134,3,472368,423869
2025-02-27 17:21:36.793,171659,115176,69168,5,472500,424095
2025-02-27 17:21:36.794,171750,115220,69196,5,472698,424226
2025-02-27 17:21:36.796,171781,115254,69200,3,472793,424385
2025-02-27 17:21:36.797,171803,115239,69196,2,472877,424420
2025-02-27 17:21:36.799,171802,115221,69183,3,472807,424386
2025-02-27 17:21:36.800,171817,115214,69170,3,472785,424287
2025-02-27 17:21:36.804,171801,115209,69170,3,472739,424250
2025-02-27 17:21:36.807,171793,115206,69183,3,472668,424249
2025-02-27 17:21:36.810,171781,115206,69193,3,472635,424214
2025-02-27 17:21:36.812,171777,115198,69189,4,472624,424229
2025-02-27 17:21:36.814,171766,115191,69190,3,472565,424178
2025-02-27 17:21:36.815,171733,115183,69179,3,472560,424124
2025-02-27 17:21:36.817,171719,115141,69171,4,472446,424113
2025-02-27 17:21:36.819,171712,115143,69174,4,472451,424042
2025-02-27 17:21:36.821,171731,115177,69194,6,472400,424042
2025-02-27 17:21:36.823,171740,115188,69223,2,472491,424085
2025-02-27 17:21:36.824,171752,115199,69218,6,472507,424122
2025-02-27 17:21:36.959,171752,115179,69217,4,472498,424056
2025-02-27 17:21:36.961,171751,115179,69212,1,472414,424060
2025-02-27 17:21:36.962,171778,115182,69223,3,472375,424004
2025-02-27 17:21:36.964,171816,115191,69229,4,472422,424054
2025-02-27 17:21:36.966,171818,115186,69224,2,472413,424108
2025-02-27 17:21:36.968,171862,115199,69236,5,472426,424106
2025-02-27 17:21:36.969,171862,115213,69234,3,472462,424129
2025-02-27 17:21:36.971,171903,115239,69239,4,472521,424262
2025-02-27 17:21:36.973,171920,115238,69241,8,472546,424270
2025-02-27 17:21:36.974,171947,115252,69258,6,472522,424329
2025-02-27 17:21:36.976,171969,115285,69259,5,472567,424308
2025-02-27 17:21:36.977,172007,115309,69270,4,472582,424364
2025-02-27 17:21:36.979,172024,115323,69280,5,472611,424415
2025-02-27 17:21:36.980,172053,115335,69287,5,472699,424502
2025-02-27 17:21:36.982,172042,115341,69290,4,472659,424463
2025-02-27 17:21:36.983,172071,115328,69290,5,472634,424486
2025-02-27 17:21:36.985,172069,115349,69288,4,472624,424437
2025-02-27 17:21:36.986,172078,115360,69294,6,472558,424481
2025-02-27 17:21:36.989,172089,115356,69292,3,472581,424440
2025-02-27 17:21:36.991,172084,115350,69296,3,472536,424446
2025-02-27 17:21:36.993,172090,115343,69299,4,472529,424391
2025-02-27 17:21:36.995,172101,115338,69296,4,472498,424424
2025-02-27 17:21:36.997,172082,115346,69291,5,472421,424371
2025-02-27 17:21:36.998,172103,115364,69300,3,472396,424328
2025-02-27 17:21:37.000,172111,115396,69322,4,472376,424349
2025-02-27 17:21:37.002,172146,115430,69346,1,472419,424433
2025-02-27 17:21:37.003,172151,115472,69368,2,472495,424474
2025-02-27 17:21:37.005,172169,115502,69391,5,472526,424514
2025-02-27 17:21:37.006,172204,115533,69413,5,472583,424622
2025-02-27 17:21:37.007,172239,115566,69430,3,472628,424649
2025-02-27 17:21:37.122,172262,115617,69453,2,472657,424724
2025-02-27 17:21:37.124,172279,115649,69465,3,472770,424795
2025-02-27 17:21:37.125,172299,115659,69474,3,472776,424907
2025-02-27 17:21:37.127,172299,115659,69474,3,472776,424907
2025-02-27 17:21:37.129,172288,115678,69467,3,472711,424854
2025-02-27 17:21:37.131,172238,115661,69465,3,472694,424809
2025-02-27 17:21:37.133,172177,115630,69459,4,472704,424789
2025-02-27 17:21:37.135,172048,115572,69435,4,472633,424734
2025-02-27 17:21:37.137,171887,115514,69427,5,472444,424564
2025-02-27 17:21:37.138,171749,115452,69405,3,472457,424367
2025-02-27 17:21:37.140,171613,115377,69368,4,472309,424229
2025-02-27 17:21:37.142,171477,115281,69330,2,472227,424055
2025-02-27 17:21:37.143,171372,115200,69271,4,472126,423910
2025-02-27 17:21:37.145,171294,115091,69219,6,472013,423733
2025-02-27 17:21:37.147,171242,115022,69175,2,471842,423562
2025-02-27 17:21:37.148,171216,114960,69145,2,471729,423508
2025-02-27 17:21:37.150,171206,114930,69134,4,471724,423443
2025-02-27 17:21:37.152,171238,114941,69124,3,471744,423459
2025-02-27 17:21:37.154,171249,114948,69135,4,471799,423519
2025-02-27 17:21:37.157,171288,114939,69130,4,471885,423624
2025-02-27 17:21:37.159,171313,114922,69120,5,471942,423669
2025-02-27 17:21:37.160,171355,114906,69100,4,471957,423703
2025-02-27 17:21:37.162,171344,114887,69082,0,471934,423694
2025-02-27 17:21:37.163,171373,114854,69068,2,471869,423636
2025-02-27 17:21:37.166,171386,114851,69073,6,471845,423622
2025-02-27 17:21:37.167,171422,114859,69077,5,471808,423652
2025-02-27 17:21:37.168,171434,114867,69080,2,471831,423685
2025-02-27 17:21:37.170,171490,114865,69079,0,471869,423695
2025-02-27 17:21:37.304,171527,114891,69087,5,471903,423754
2025-02-27 17:21:37.306,171567,114893,69084,2,471920,423799
2025-02-27 17:21:37.308,171585,114901,69084,6,471921,423869
2025-02-27 17:21:37.309,171603,114892,69076,2,471918,423827
2025-02-27 17:21:37.311,171607,114890,69069,2,471898,423842
2025-02-27 17:21:37.312,171604,114873,69072,3,471862,423761
2025-02-27 17:21:37.314,171589,114877,69069,3,471794,423703
2025-02-27 17:21:37.316,171583,114873,69076,4,471756,423711
2025-02-27 17:21:37.318,171548,114869,69068,7,471733,423656
2025-02-27 17:21:37.319,171523,114852,69067,2,471647,423600
2025-02-27 17:21:37.321,171509,114828,69061,4,471622,423514
2025-02-27 17:21:37.322,171488,114807,69066,3,471531,423491
2025-02-27 17:21:37.324,171490,114804,69073,4,471482,423395
2025-02-27 17:21:37.325,171496,114814,69074,3,471476,423437
2025-02-27 17:21:37.327,171500,114844,69093,0,471579,423490
2025-02-27 17:21:37.328,171508,114869,69107,5,471589,423520
2025-02-27 17:21:37.330,171505,114879,69113,5,471589,423573
2025-02-27 17:21:37.332,171515,114867,69101,3,471685,423564
2025-02-27 17:21:37.334,171519,114846,69092,4,471626,423496
2025-02-27 17:21:37.337,171512,114835,69099,2,471567,423529
2025-02-27 17:21:37.339,171553,114867,69121,4,471523,423457
2025-02-27 17:21:37.340,171570,114921,69157,5,471574,423560
2025-02-27 17:21:37.342,171625,114958,69194,0,471754,423712
2025-02-27 17:21:37.344,171662,114996,69214,4,471822,423864
2025-02-27 17:21:37.346,171691,115027,69228,3,471967,423916
2025-02-27 17:21:37.347,171726,115032,69232,4,471917,423996
2025-02-27 17:21:37.349,171743,115041,69224,3,471966,424007
2025-02-27 17:21:37.350,171754,115015,69212,3,471913,423984
2025-02-27 17:21:37.352,171771,115020,69206,4,471915,423926
2025-02-27 17:21:37.468,171748,115010,69202,3,471838,423914
2025-02-27 17:21:37.470,171756,115007,69198,0,471739,423900
2025-02-27 17:21:37.472,171779,115013,69214,4,471746,423806
2025-02-27 17:21:37.474,171793,115038,69237,4,471723,423838
2025-02-27 17:21:37.476,171788,115051,69249,6,471753,423824
2025-02-27 17:21:37.477,171812,115065,69269,3,471707,423899
2025-02-27 17:21:37.479,171824,115085,69284,2,471715,423909
2025-02-27 17:21:37.481,171835,115099,69301,3,471752,423889
2025-02-27 17:21:37.484,171849,115130,69328,4,471772,423996
2025-02-27 17:21:37.485,171873,115171,69347,6,471833,423978
2025-02-27 17:21:37.488,171883,115197,69366,3,471781,424049
2025-02-27 17:21:37.490,171913,115216,69397,7,471857,424054
2025-02-27 17:21:37.492,171934,115257,69416,3,471900,424110
2025-02-27 17:21:37.494,171953,115303,69436,5,471981,424165
2025-02-27 17:21:37.496,171974,115311,69452,6,472005,424233
2025-02-27 17:21:37.498,171980,115319,69459,4,472017,424232
2025-02-27 17:21:37.501,171984,115335,69469,3,471958,424189
2025-02-27 17:21:37.505,171967,115333,69462,3,471938,424197
2025-02-27 17:21:37.507,171942,115306,69454,6,471944,424113
2025-02-27 17:21:37.510,171884,115281,69448,6,471802,424103
2025-02-27 17:21:37.513,171772,115221,69434,4,471799,424040
2025-02-27 17:21:37.515,171625,115148,69408,5,471613,423917
2025-02-27 17:21:37.518,171472,115081,69397,5,471490,423690
2025-02-27 17:21:37.707,171324,115007,69366,3,471417,423509
2025-02-27 17:21:37.709,171180,114904,69317,5,471272,423371
2025-02-27 17:21:37.711,171073,114802,69266,5,471164,423085
2025-02-27 17:21:37.713,170980,114688,69198,3,470999,422931
2025-02-27 17:21:37.715,170980,114688,69198,3,470999,422931
2025-02-27 17:21:37.717,170871,114521,69093,3,470732,422647
2025-02-27 17:21:37.720,170836,114464,69052,1,470637,422539
2025-02-27 17:21:37.722,170850,114434,69011,6,470575,422490
2025-02-27 17:21:37.724,170861,114392,68987,4,470591,422490
2025-02-27 17:21:37.726,170874,114382,68949,3,470561,422474
2025-02-27 17:21:37.729,170887,114335,68925,3,470537,422471
2025-02-27 17:21:37.731,170915,114316,68896,1,470572,422537
2025-02-27 17:21:37.733,170934,114292,68866,2,470531,422531
2025-02-27 17:21:37.734,170943,114282,68848,4,470490,422514
2025-02-27 17:21:37.737,170952,114273,68844,5,470514,422509
2025-02-27 17:21:37.739,170981,114270,68840,4,470460,422513
2025-02-27 17:21:37.741,171005,114276,68824,4,470524,422549
2025-02-27 17:21:37.744,171026,114266,68814,4,470526,422576
2025-02-27 17:21:37.748,171051,114272,68814,5,470546,422581
2025-02-27 17:21:37.750,171105,114275,68812,1,470578,422659
2025-02-27 17:21:37.753,171151,114294,68815,3,470607,422666
2025-02-27 17:21:37.755,171154,114287,68815,6,470606,422701
2025-02-27 17:21:37.912,171153,114272,68811,3,470588,422656
2025-02-27 17:21:37.914,171161,114262,68790,3,470493,422598
2025-02-27 17:21:37.916,171134,114256,68779,3,470459,422597
2025-02-27 17:21:37.919,171105,114219,68764,2,470375,422511
2025-02-27 17:21:37.921,171088,114210,68761,3,470297,422425
2025-02-27 17:21:37.924,171055,114186,68740,3,470200,422333
2025-02-27 17:21:37.926,171033,114123,68718,6,470120,422260
2025-02-27 17:21:37.928,171015,114088,68691,5,470022,422114
2025-02-27 17:21:37.931,170979,114052,68668,5,469915,422035
2025-02-27 17:21:37.934,170954,114003,68635,5,469753,421877
2025-02-27 17:21:37.936,170942,113966,68610,2,469637,421816
2025-02-27 17:21:37.939,170917,113904,68568,3,469452,421703
2025-02-27 17:21:37.941,170879,113869,68545,5,469312,421487
2025-02-27 17:21:37.944,170863,113848,68537,2,469231,421395
2025-02-27 17:21:37.947,170864,113845,68535,5,469138,421331
2025-02-27 17:21:37.949,170878,113846,68540,1,469093,421225
2025-02-27 17:21:37.953,170888,113853,68536,3,469057,421242
2025-02-27 17:21:37.956,170890,113889,68551,4,469094,421294
2025-02-27 17:21:37.958,170930,113909,68572,4,469079,421335
2025-02-27 17:21:37.960,170966,113955,68587,4,469206,421432
2025-02-27 17:21:38.138,170986,113991,68601,0,469340,421587
2025-02-27 17:21:38.140,171024,114010,68607,1,469402,421670
2025-02-27 17:21:38.143,171045,114039,68621,5,469384,421665
2025-02-27 17:21:38.145,171063,114037,68613,3,469416,421720
2025-02-27 17:21:38.147,171072,114042,68610,3,469482,421710
2025-02-27 17:21:38.149,171070,114026,68590,4,469359,421679
2025-02-27 17:21:38.151,171084,114029,68586,2,469324,421675
2025-02-27 17:21:38.154,171089,114033,68575,3,469260,421628
2025-02-27 17:21:38.156,171088,114033,68581,5,469273,421672
2025-02-27 17:21:38.158,171093,114037,68569,3,469136,421621
2025-02-27 17:21:38.160,171126,114053,68595,3,469172,421597
2025-02-27 17:21:38.162,171145,114083,68604,3,469177,421652
2025-02-27 17:21:38.165,171143,114120,68627,3,469230,421692
2025-02-27 17:21:38.167,171162,114169,68648,7,469271,421711
2025-02-27 17:21:38.169,171189,114196,68676,3,469295,421831
2025-02-27 17:21:38.172,171235,114254,68696,3,469423,421885
2025-02-27 17:21:38.174,171244,114292,68709,6,469537,422002
2025-02-27 17:21:38.176,171259,114302,68711,3,469546,422021
2025-02-27 17:21:38.180,171251,114302,68703,4,469514,421992
2025-02-27 17:21:38.183,171251,114286,68696,6,469506,421945
2025-02-27 17:21:38.185,171212,114257,68673,3,469413,421883
2025-02-27 17:21:38.350,171146,114215,68636,6,469283,421726
2025-02-27 17:21:38.352,171064,114161,68619,3,469094,421636
2025-02-27 17:21:38.355,170941,114098,68600,3,469020,421542
2025-02-27 17:21:38.357,170783,114034,68586,2,468852,421376
2025-02-27 17:21:38.359,170637,113978,68570,4,468813,421247
2025-02-27 17:21:38.362,170491,113901,68550,5,468785,421106
2025-02-27 17:21:38.364,170396,113849,68533,3,468722,421028
2025-02-27 17:21:38.366,170292,113776,68506,2,468684,420899
2025-02-27 17:21:38.368,170218,113700,68477,4,468674,420699
2025-02-27 17:21:38.370,170199,113658,68476,2,468633,420616
2025-02-27 17:21:38.373,170157,113611,68458,2,468623,420631
2025-02-27 17:21:38.375,170143,113563,68432,1,468628,420521
2025-02-27 17:21:38.378,170155,113542,68423,6,468611,420560
2025-02-27 17:21:38.380,170171,113515,68419,5,468600,420504
2025-02-27 17:21:38.383,170172,113479,68409,4,468610,420573
2025-02-27 17:21:38.386,170193,113466,68407,4,468640,420559
2025-02-27 17:21:38.388,170193,113445,68401,6,468647,420593
2025-02-27 17:21:38.391,170221,113417,68384,4,468653,420580
2025-02-27 17:21:38.395,170227,113400,68367,3,468659,420616
2025-02-27 17:21:38.398,170235,113392,68363,5,468587,420641
2025-02-27 17:21:38.596,170263,113391,68364,1,468625,420678
2025-02-27 17:21:38.598,170307,113396,68364,5,468716,420721
2025-02-27 17:21:38.599,170307,113396,68364,5,468716,420721
2025-02-27 17:21:38.601,170375,113405,68362,5,468850,420891
2025-02-27 17:21:38.603,170421,113401,68350,3,468883,420941
2025-02-27 17:21:38.605,170440,113399,68355,5,468899,420930
2025-02-27 17:21:38.607,170468,113396,68351,4,468901,420997
2025-02-27 17:21:38.609,170468,113382,68336,8,468948,421028
2025-02-27 17:21:38.610,170467,113377,68330,4,468891,421001
2025-02-27 17:21:38.612,170471,113377,68324,5,468836,420956
2025-02-27 17:21:38.613,170440,113367,68316,2,468921,420997
2025-02-27 17:21:38.615,170432,113338,68306,1,468829,420918
2025-02-27 17:21:38.617,170419,113315,68279,3,468871,420918
2025-02-27 17:21:38.619,170397,113284,68257,3,468747,420873
2025-02-27 17:21:38.620,170383,113260,68244,2,468704,420778
2025-02-27 17:21:38.622,170381,113229,68218,6,468661,420776
2025-02-27 17:21:38.623,170374,113199,68195,4,468633,420745
2025-02-27 17:21:38.625,170357,113209,68181,3,468570,420713
2025-02-27 17:21:38.627,170374,113208,68185,4,468599,420694
2025-02-27 17:21:38.629,170366,113191,68151,5,468607,420749
2025-02-27 17:21:38.632,170358,113162,68128,4,468592,420703
2025-02-27 17:21:38.634,170357,113125,68102,5,468524,420688
2025-02-27 17:21:38.635,170362,113102,68086,4,468433,420587
2025-02-27 17:21:38.637,170382,113106,68073,7,468387,420569
2025-02-27 17:21:38.638,170372,113107,68071,6,468363,420564
2025-02-27 17:21:38.640,170392,113130,68086,3,468364,420585
2025-02-27 17:21:38.642,170426,113151,68089,5,468420,420682
2025-02-27 17:21:38.644,170457,113174,68108,7,468526,420743
2025-02-27 17:21:38.773,170482,113200,68112,5,468625,420866
2025-02-27 17:21:38.774,170488,113194,68107,3,468614,420919
2025-02-27 17:21:38.776,170503,113171,68089,2,468605,420836
2025-02-27 17:21:38.778,170514,113168,68078,3,468525,420791
2025-02-27 17:21:38.780,170528,113176,68082,5,468518,420754
2025-02-27 17:21:38.781,170546,113196,68088,5,468474,420818
2025-02-27 17:21:38.783,170543,113198,68088,6,468499,420811
2025-02-27 17:21:38.785,170564,113207,68095,4,468475,420790
2025-02-27 17:21:38.787,170572,113210,68090,2,468461,420795
2025-02-27 17:21:38.789,170570,113208,68100,2,468463,420774
2025-02-27 17:21:38.790,170583,113228,68104,3,468414,420768
2025-02-27 17:21:38.792,170580,113255,68128,4,468438,420771
2025-02-27 17:21:38.793,170620,113300,68147,6,468470,420845
2025-02-27 17:21:38.795,170658,113345,68170,2,468566,420933
2025-02-27 17:21:38.796,170677,113399,68201,2,468677,421050
2025-02-27 17:21:38.798,170722,113429,68216,1,468767,421166
2025-02-27 17:21:38.799,170724,113440,68224,1,468843,421221
2025-02-27 17:21:38.801,170737,113439,68213,3,468832,421243
2025-02-27 17:21:38.802,170722,113435,68208,5,468719,421184
2025-02-27 17:21:38.804,170684,113428,68192,0,468674,421118
2025-02-27 17:21:38.805,170662,113403,68189,4,468640,421065
2025-02-27 17:21:38.808,170591,113373,68169,2,468596,421001
2025-02-27 17:21:38.810,170465,113298,68134,5,468504,421005
2025-02-27 17:21:38.812,170295,113220,68094,4,468403,420735
2025-02-27 17:21:38.814,170137,113125,68050,3,468255,420591
2025-02-27 17:21:38.815,169975,113006,67991,1,468159,420338
2025-02-27 17:21:38.817,169852,112898,67928,4,468003,420168
2025-02-27 17:21:38.819,169734,112779,67851,2,467893,419969
2025-02-27 17:21:38.821,169645,112672,67776,2,467716,419832
2025-02-27 17:21:38.971,169594,112566,67704,3,467665,419740
2025-02-27 17:21:38.973,169554,112466,67632,5,467659,419624
2025-02-27 17:21:38.975,169523,112407,67584,3,467570,419606
2025-02-27 17:21:38.977,169523,112345,67535,4,467559,419549
2025-02-27 17:21:38.978,169519,112309,67501,5,467572,419565
2025-02-27 17:21:38.980,169529,112266,67468,7,467626,419588
2025-02-27 17:21:38.982,169553,112215,67429,1,467639,419605
2025-02-27 17:21:38.983,169542,112167,67384,1,467570,419582
2025-02-27 17:21:38.985,169553,112121,67349,5,467585,419466
2025-02-27 17:21:38.987,169533,112081,67317,4,467510,419473
2025-02-27 17:21:38.988,169561,112052,67297,2,467434,419445
2025-02-27 17:21:38.990,169568,112033,67278,4,467501,419473
2025-02-27 17:21:38.992,169581,112017,67253,4,467566,419560
2025-02-27 17:21:38.994,169602,112011,67242,3,467586,419539
2025-02-27 17:21:38.995,169609,111988,67229,2,467586,419593
2025-02-27 17:21:38.997,169656,111979,67216,4,467609,419650
2025-02-27 17:21:38.999,169685,111972,67204,6,467655,419678
2025-02-27 17:21:39.000,169715,111969,67193,5,467689,419742
2025-02-27 17:21:39.002,169743,111956,67188,6,467758,419871
2025-02-27 17:21:39.004,169750,111967,67185,3,467795,419819
2025-02-27 17:21:39.006,169751,111942,67176,4,467825,419873
2025-02-27 17:21:39.008,169742,111923,67170,6,467741,419818
2025-02-27 17:21:39.010,169728,111889,67157,5,467715,419757
2025-02-27 17:21:39.012,169709,111876,67156,3,467682,419698
2025-02-27 17:21:39.013,169687,111854,67145,0,467687,419615
2025-02-27 17:21:39.015,169697,111823,67145,5,467562,419668
2025-02-27 17:21:39.016,169697,111823,67145,5,467562,419668
2025-02-27 17:21:39.018,169691,111796,67130,3,467553,419624
2025-02-27 17:21:39.148,169702,111804,67134,4,467588,419646
2025-02-27 17:21:39.150,169724,111845,67163,3,467679,419706
2025-02-27 17:21:39.152,169747,111881,67211,5,467797,419845
2025-02-27 17:21:39.154,169753,111903,67223,6,467953,419948
2025-02-27 17:21:39.155,169790,111904,67237,4,468043,420016
2025-02-27 17:21:39.157,169790,111892,67239,4,468031,420052
2025-02-27 17:21:39.160,169791,111867,67222,3,467981,419978
2025-02-27 17:21:39.162,169791,111855,67218,5,467955,419950
2025-02-27 17:21:39.164,169799,111845,67218,2,467916,419895
2025-02-27 17:21:39.165,169837,111856,67247,6,467947,419956
2025-02-27 17:21:39.166,169857,111918,67283,6,468041,420089
2025-02-27 17:21:39.168,169913,111976,67323,1,468139,420205
2025-02-27 17:21:39.170,169958,112047,67372,6,468354,420342
2025-02-27 17:21:39.172,169988,112040,67382,4,468535,420530
2025-02-27 17:21:39.173,169984,112058,67388,2,468516,420486
2025-02-27 17:21:39.175,170001,112031,67385,4,468478,420483
2025-02-27 17:21:39.177,169998,112006,67362,5,468420,420396
2025-02-27 17:21:39.178,170006,111986,67356,6,468309,420349
2025-02-27 17:21:39.181,169997,111998,67358,6,468278,420288
2025-02-27 17:21:39.184,169998,111978,67348,4,468225,420294
2025-02-27 17:21:39.186,169998,111976,67351,3,468155,420211
2025-02-27 17:21:39.188,170011,111993,67355,4,468141,420262
2025-02-27 17:21:39.189,170018,112004,67366,2,468163,420204
2025-02-27 17:21:39.191,170031,112018,67377,2,468161,420227
2025-02-27 17:21:39.193,170049,112018,67385,5,468147,420261
2025-02-27 17:21:39.195,170070,112032,67401,3,468154,420291
2025-02-27 17:21:39.196,170085,112081,67426,5,468201,420339
2025-02-27 17:21:39.354,170102,112102,67443,4,468266,420376
2025-02-27 17:21:39.356,170127,112147,67466,5,468378,420518
2025-02-27 17:21:39.358,170153,112171,67489,6,468443,420559
2025-02-27 17:21:39.360,170183,112180,67490,6,468520,420644
2025-02-27 17:21:39.361,170185,112189,67501,5,468492,420629
2025-02-27 17:21:39.363,170188,112196,67509,4,468468,420656
2025-02-27 17:21:39.365,170220,112215,67525,3,468478,420631
2025-02-27 17:21:39.367,170185,112245,67535,3,468502,420608
2025-02-27 17:21:39.369,170181,112226,67555,2,468483,420607
2025-02-27 17:21:39.371,170145,112219,67562,2,468564,420658
2025-02-27 17:21:39.372,170051,112174,67560,3,468511,420709
2025-02-27 17:21:39.374,169912,112119,67549,5,468439,420557
2025-02-27 17:21:39.376,169752,112045,67527,5,468379,420411
2025-02-27 17:21:39.378,169599,111926,67484,3,468332,420253
2025-02-27 17:21:39.381,169449,111816,67429,5,468201,420052
2025-02-27 17:21:39.383,169334,111680,67366,3,468123,419882
2025-02-27 17:21:39.385,169240,111564,67295,4,468029,419722
2025-02-27 17:21:39.387,169157,111455,67234,4,467955,419601
2025-02-27 17:21:39.390,169143,111352,67163,4,467849,419531
2025-02-27 17:21:39.393,169105,111251,67100,2,467859,419456
2025-02-27 17:21:39.394,169090,111161,67045,4,467802,419412
2025-02-27 17:21:39.396,169084,111075,66983,1,467746,419327
2025-02-27 17:21:39.398,169086,111009,66936,2,467720,419321
2025-02-27 17:21:39.400,169094,110968,66903,4,467699,419309
2025-02-27 17:21:39.402,169129,110929,66875,4,467732,419328
2025-02-27 17:21:39.526,169130,110883,66859,8,467843,419372
2025-02-27 17:21:39.528,169143,110860,66831,5,467890,419400
2025-02-27 17:21:39.530,169145,110803,66810,2,467876,419483
2025-02-27 17:21:39.531,169153,110766,66784,3,467872,419430
2025-02-27 17:21:39.533,169149,110732,66762,1,467915,419432
2025-02-27 17:21:39.535,169153,110711,66754,5,467922,419456
2025-02-27 17:21:39.537,169194,110683,66747,4,467937,419522
2025-02-27 17:21:39.538,169231,110672,66744,6,468014,419562
2025-02-27 17:21:39.540,169288,110670,66749,2,468091,419645
2025-02-27 17:21:39.541,169331,110700,66749,4,468218,419769
2025-02-27 17:21:39.542,169379,110711,66767,2,468297,419888
2025-02-27 17:21:39.544,169406,110701,66767,2,468442,419984
2025-02-27 17:21:39.545,169419,110684,66760,6,468465,420095
2025-02-27 17:21:39.547,169430,110663,66747,1,468543,420065
2025-02-27 17:21:39.548,169434,110635,66721,5,468485,420018
2025-02-27 17:21:39.549,169388,110599,66700,3,468450,419990
2025-02-27 17:21:39.551,169395,110568,66684,4,468317,419920
2025-02-27 17:21:39.552,169372,110537,66670,5,468297,419809
2025-02-27 17:21:39.554,169376,110527,66660,5,468247,419833
2025-02-27 17:21:39.557,169382,110503,66658,4,468263,419860
2025-02-27 17:21:39.559,169387,110475,66647,6,468339,419885
2025-02-27 17:21:39.561,169371,110471,66635,3,468304,419911
2025-02-27 17:21:39.562,169380,110443,66630,5,468339,419899
2025-02-27 17:21:39.564,169373,110422,66601,5,468330,419912
2025-02-27 17:21:39.565,169369,110398,66588,4,468310,419858
2025-02-27 17:21:39.567,169389,110399,66582,6,468255,419850
2025-02-27 17:21:39.569,169416,110387,66578,2,468274,419846
2025-02-27 17:21:39.570,169416,110387,66578,2,468274,419846
2025-02-27 17:21:39.571,169443,110387,66590,2,468326,419899
2025-02-27 17:21:39.572,169448,110390,66587,3,468316,419967
2025-02-27 17:21:39.574,169477,110389,66582,6,468404,419951
2025-02-27 17:21:39.575,169484,110369,66575,6,468390,419937
2025-02-27 17:21:39.709,169505,110365,66570,3,468308,419965
2025-02-27 17:21:39.711,169524,110372,66560,2,468267,419922
2025-02-27 17:21:39.713,169555,110383,66568,2,468270,419880
2025-02-27 17:21:39.715,169558,110395,66583,5,468302,419973
2025-02-27 17:21:39.717,169591,110418,66591,4,468370,420032
2025-02-27 17:21:39.718,169585,110418,66592,4,468357,420059
2025-02-27 17:21:39.720,169603,110413,66588,4,468337,420072
2025-02-27 17:21:39.721,169620,110412,66585,6,468328,420015
2025-02-27 17:21:39.723,169619,110404,66589,4,468256,420006
2025-02-27 17:21:39.725,169614,110412,66593,5,468255,419990
2025-02-27 17:21:39.726,169632,110426,66600,2,468208,419915
2025-02-27 17:21:39.727,169647,110438,66615,5,468215,419986
2025-02-27 17:21:39.729,169661,110457,66623,6,468191,420016
2025-02-27 17:21:39.730,169670,110483,66642,4,468195,420035
2025-02-27 17:21:39.732,169686,110480,66632,3,468227,420044
2025-02-27 17:21:39.733,169689,110457,66624,5,468188,420010
2025-02-27 17:21:39.735,169673,110446,66602,4,468075,419954
2025-02-27 17:21:39.736,169647,110448,66600,5,468003,419828
2025-02-27 17:21:39.738,169659,110416,66593,6,467920,419705
2025-02-27 17:21:39.740,169656,110424,66594,4,467819,419666
2025-02-27 17:21:39.742,169664,110450,66612,3,467791,419684
2025-02-27 17:21:39.744,169675,110493,66631,4,467804,419721
2025-02-27 17:21:39.746,169715,110529,66655,6,467951,419809
2025-02-27 17:21:39.748,169718,110555,66668,4,467908,419811
2025-02-27 17:21:39.749,169746,110568,66682,3,467965,419832
2025-02-27 17:21:39.751,169746,110595,66698,4,468023,419829
2025-02-27 17:21:39.753,169753,110631,66715,2,468009,419934
2025-02-27 17:21:39.754,169792,110660,66725,6,468068,419914
2025-02-27 17:21:39.755,169820,110693,66740,7,468070,420008
2025-02-27 17:21:39.757,169833,110735,66753,3,468162,419998
2025-02-27 17:21:39.758,169857,110776,66778,4,468181,420130
2025-02-27 17:21:39.873,169889,110833,66812,3,468301,420251
2025-02-27 17:21:39.875,169942,110881,66842,4,468372,420339
2025-02-27 17:21:39.877,169965,110931,66880,5,468468,420387
2025-02-27 17:21:39.879,169947,110960,66903,4,468550,420463
2025-02-27 17:21:39.882,169937,110983,66934,5,468562,420442
2025-02-27 17:21:39.883,169936,110998,66953,2,468568,420478
2025-02-27 17:21:39.885,169824,110989,66954,4,468635,420497
2025-02-27 17:21:39.886,169674,110916,66929,4,468554,420411
2025-02-27 17:21:39.888,169504,110825,66900,4,468466,420204
2025-02-27 17:21:39.889,169329,110707,66850,5,468335,419978
2025-02-27 17:21:39.891,169138,110570,66793,3,468127,419710
2025-02-27 17:21:39.893,168998,110436,66726,3,467905,419461
2025-02-27 17:21:39.894,168903,110312,66661,5,467766,419291
2025-02-27 17:21:39.898,168839,110210,66616,4,467670,419045
2025-02-27 17:21:39.900,168790,110132,66590,3,467617,419035
2025-02-27 17:21:39.902,168774,110096,66561,3,467728,419019
2025-02-27 17:21:39.904,168774,110030,66534,4,467704,419059
2025-02-27 17:21:39.906,168746,109988,66500,4,467742,419043
2025-02-27 17:21:39.908,168775,109908,66473,2,467789,419055
2025-02-27 17:21:39.910,168781,109867,66438,3,467737,419043
2025-02-27 17:21:39.912,168784,109819,66421,4,467735,418994
2025-02-27 17:21:39.913,168800,109781,66393,3,467799,418990
2025-02-27 17:21:39.915,168814,109745,66376,3,467810,419041
2025-02-27 17:21:39.917,168816,109701,66349,7,467795,419021
2025-02-27 17:21:39.918,168806,109652,66319,4,467821,418969
2025-02-27 17:21:39.919,168801,109605,66293,3,467708,418956
2025-02-27 17:21:39.920,168794,109546,66267,5,467684,418878
2025-02-27 17:21:39.921,168801,109510,66247,3,467635,418832
2025-02-27 17:21:40.057,168799,109495,66246,3,467608,418846
2025-02-27 17:21:40.059,168851,109500,66253,4,467595,418857
2025-02-27 17:21:40.061,168905,109503,66254,3,467777,418969
2025-02-27 17:21:40.063,168942,109499,66265,2,467830,419083
2025-02-27 17:21:40.065,168980,109489,66245,3,467839,419137
2025-02-27 17:21:40.067,168970,109460,66231,5,467854,419107
2025-02-27 17:21:40.068,168985,109468,66225,4,467803,419081
2025-02-27 17:21:40.070,168979,109453,66220,3,467835,419102
2025-02-27 17:21:40.071,168979,109439,66215,5,467837,419093
2025-02-27 17:21:40.073,168999,109425,66204,4,467839,419080
2025-02-27 17:21:40.074,168985,109419,66210,7,467760,419035
2025-02-27 17:21:40.076,168964,109413,66202,6,467757,419024
2025-02-27 17:21:40.077,168974,109407,66201,3,467744,419000
2025-02-27 17:21:40.079,168967,109373,66184,4,467753,418976
2025-02-27 17:21:40.080,168955,109356,66172,3,467616,418875
2025-02-27 17:21:40.082,168958,109364,66180,3,467666,418913
2025-02-27 17:21:40.084,168963,109358,66185,2,467651,418920
2025-02-27 17:21:40.085,168963,109358,66185,2,467651,418920
2025-02-27 17:21:40.088,169006,109395,66209,0,467740,418994
2025-02-27 17:21:40.090,169033,109425,66234,2,467820,419056
2025-02-27 17:21:40.092,169047,109444,66254,5,467890,419167
2025-02-27 17:21:40.094,169079,109485,66282,7,467997,419310
2025-02-27 17:21:40.095,169111,109528,66310,4,468129,419355
2025-02-27 17:21:40.097,169142,109564,66336,3,468197,419499
2025-02-27 17:21:40.099,169178,109589,66349,5,468318,419595
2025-02-27 17:21:40.101,169202,109604,66355,3,468399,419629
2025-02-27 17:21:40.102,169233,109607,66375,7,468414,419676
2025-02-27 17:21:40.103,169272,109638,66397,3,468439,419698
2025-02-27 17:21:40.105,169292,109668,66415,4,468470,419742
2025-02-27 17:21:40.106,169338,109678,66436,3,468525,419807
2025-02-27 17:21:40.222,169352,109711,66461,4,468616,419813
2025-02-27 17:21:40.223,169382,109737,66473,4,468612,419893
2025-02-27 17:21:40.225,169399,109768,66496,6,468636,419988
2025-02-27 17:21:40.227,169415,109767,66515,3,468649,419988
2025-02-27 17:21:40.228,169408,109788,66516,3,468680,419962
2025-02-27 17:21:40.230,169411,109787,66528,4,468637,419893
2025-02-27 17:21:40.232,169423,109792,66545,6,468589,419866
2025-02-27 17:21:40.234,169417,109811,66566,4,468549,419808
2025-02-27 17:21:40.236,169438,109826,66572,1,468485,419812
2025-02-27 17:21:40.237,169458,109843,66602,2,468487,419839
2025-02-27 17:21:40.239,169465,109863,66628,2,468483,419827
2025-02-27 17:21:40.240,169481,109892,66671,5,468498,419882
2025-02-27 17:21:40.242,169500,109926,66685,4,468603,419910
2025-02-27 17:21:40.243,169528,109962,66711,1,468607,419959
2025-02-27 17:21:40.245,169545,109986,66727,5,468574,419978
2025-02-27 17:21:40.246,169551,109986,66742,3,468617,419958
2025-02-27 17:21:40.248,169561,110003,66740,2,468556,419921
2025-02-27 17:21:40.250,169558,110010,66762,3,468577,419886
2025-02-27 17:21:40.253,169593,110041,66791,6,468583,419913
2025-02-27 17:21:40.255,169586,110086,66826,5,468611,419925
2025-02-27 17:21:40.257,169633,110133,66871,4,468644,420056
2025-02-27 17:21:40.259,169660,110175,66902,3,468761,420084
2025-02-27 17:21:40.261,169649,110178,66905,4,468750,420062
2025-02-27 17:21:40.263,169661,110157,66892,5,468653,419977
2025-02-27 17:21:40.265,169636,110141,66887,5,468545,419914
2025-02-27 17:21:40.266,169652,110138,66879,3,468458,419753
2025-02-27 17:21:40.267,169640,110133,66877,7,468312,419670
2025-02-27 17:21:40.269,169645,110125,66871,2,468190,419642
2025-02-27 17:21:40.270,169660,110146,66878,2,468142,419571
2025-02-27 17:21:40.414,169676,110166,66908,4,468061,419548
2025-02-27 17:21:40.417,169710,110228,66949,6,468101,419564
2025-02-27 17:21:40.419,169730,110279,66994,1,468240,419695
2025-02-27 17:21:40.421,169780,110331,67038,4,468287,419748
2025-02-27 17:21:40.424,169819,110385,67077,4,468364,419926
2025-02-27 17:21:40.426,169841,110455,67122,2,468530,420006
2025-02-27 17:21:40.428,169858,110521,67168,6,468646,420142
2025-02-27 17:21:40.431,169856,110569,67196,4,468754,420219
2025-02-27 17:21:40.433,169819,110590,67221,2,468776,420274
2025-02-27 17:21:40.435,169726,110575,67233,2,468894,420335
2025-02-27 17:21:40.438,169586,110547,67234,4,468910,420262
2025-02-27 17:21:40.439,169439,110487,67239,5,468818,420117
2025-02-27 17:21:40.441,169258,110414,67213,5,468765,419981
2025-02-27 17:21:40.443,169112,110334,67199,3,468672,419776
2025-02-27 17:21:40.445,168978,110229,67157,4,468582,419608
2025-02-27 17:21:40.447,168880,110139,67120,2,468474,419482
2025-02-27 17:21:40.449,168804,110069,67098,5,468440,419387
2025-02-27 17:21:40.451,168793,110011,67097,4,468468,419361
2025-02-27 17:21:40.455,168776,109978,67091,0,468509,419360
2025-02-27 17:21:40.457,168795,109954,67098,3,468528,419418
2025-02-27 17:21:40.460,168817,109948,67115,3,468715,419549
2025-02-27 17:21:40.462,168849,109939,67121,3,468868,419646
2025-02-27 17:21:42.014,168876,109938,67126,6,468993,419743
2025-02-27 17:21:42.018,168883,109915,67151,4,469086,419839
2025-02-27 17:21:42.019,168895,109874,67136,2,469072,419828
2025-02-27 17:21:42.022,168912,109845,67134,4,469097,419846
2025-02-27 17:21:42.024,168915,109797,67119,3,469104,419816
2025-02-27 17:21:42.025,168938,109751,67108,5,469105,419834
2025-02-27 17:21:42.027,168945,109753,67117,3,469056,419805
2025-02-27 17:21:42.028,168948,109743,67119,4,469112,419837
2025-02-27 17:21:42.031,168969,109741,67122,6,469186,419920
2025-02-27 17:21:42.033,168990,109718,67124,3,469214,419926
2025-02-27 17:21:42.034,169013,109698,67121,3,469255,419969
2025-02-27 17:21:42.036,169072,109680,67129,4,469250,419944
2025-02-27 17:21:42.038,169088,109669,67126,4,469244,419979
2025-02-27 17:21:42.040,169140,109676,67134,6,469267,420050
2025-02-27 17:21:42.043,169168,109699,67145,3,469341,420112
2025-02-27 17:21:42.046,169200,109705,67157,4,469341,420171
2025-02-27 17:21:42.050,169202,109684,67174,6,469365,420204
2025-02-27 17:21:42.054,169202,109684,67174,6,469365,420204
2025-02-27 17:21:42.056,169189,109665,67165,3,469317,420150
2025-02-27 17:21:42.058,169194,109658,67165,4,469316,420087
2025-02-27 17:21:42.189,169180,109643,67169,3,469268,420024
2025-02-27 17:21:42.192,169179,109662,67173,5,469291,420037
2025-02-27 17:21:42.193,169177,109658,67178,3,469268,420085
2025-02-27 17:21:42.195,169189,109643,67171,5,469304,420091
2025-02-27 17:21:42.197,169206,109639,67169,4,469294,420087
2025-02-27 17:21:42.199,169182,109625,67162,2,469295,420053
2025-02-27 17:21:42.201,169196,109637,67153,5,469210,419992
2025-02-27 17:21:42.202,169198,109626,67151,4,469211,419998
2025-02-27 17:21:42.204,169203,109630,67153,2,469190,420050
2025-02-27 17:21:42.205,169229,109634,67171,6,469269,420042
2025-02-27 17:21:42.206,169246,109655,67180,2,469303,420080
2025-02-27 17:21:42.208,169291,109694,67219,4,469408,420211
2025-02-27 17:21:42.209,169329,109732,67233,5,469434,420267
2025-02-27 17:21:42.211,169374,109750,67250,3,469467,420367
2025-02-27 17:21:42.212,169403,109778,67267,5,469643,420467
2025-02-27 17:21:42.214,169418,109796,67285,4,469674,420570
2025-02-27 17:21:42.215,169449,109810,67294,4,469704,420599
2025-02-27 17:21:42.217,169491,109831,67314,4,469689,420570
2025-02-27 17:21:42.219,169519,109866,67340,4,469761,420668
2025-02-27 17:21:42.222,169537,109885,67351,3,469741,420701
2025-02-27 17:21:42.224,169554,109908,67362,4,469807,420724
2025-02-27 17:21:42.226,169589,109945,67395,5,469809,420759
2025-02-27 17:21:42.228,169616,109977,67420,4,469875,420813
2025-02-27 17:21:42.230,169637,109998,67434,6,469921,420846
2025-02-27 17:21:42.232,169637,109995,67442,1,469965,420895
2025-02-27 17:21:42.234,169647,110009,67452,4,469828,420855
2025-02-27 17:21:42.236,169678,110032,67459,5,469827,420849
2025-02-27 17:21:42.238,169658,110037,67463,1,469773,420797
2025-02-27 17:21:42.381,169689,110057,67471,4,469727,420752
2025-02-27 17:21:42.383,169675,110075,67473,1,469698,420706
2025-02-27 17:21:42.385,169705,110075,67476,3,469662,420750
2025-02-27 17:21:42.387,169701,110072,67472,6,469652,420660
2025-02-27 17:21:42.389,169696,110062,67455,6,469519,420523
2025-02-27 17:21:42.390,169673,110045,67446,6,469418,420447
2025-02-27 17:21:42.392,169661,110016,67415,4,469237,420347
2025-02-27 17:21:42.394,169667,110025,67406,3,469060,420178
2025-02-27 17:21:42.395,169677,110056,67418,4,468976,420194
2025-02-27 17:21:42.397,169706,110064,67437,5,469000,420161
2025-02-27 17:21:42.398,169710,110114,67460,1,468972,420208
2025-02-27 17:21:42.400,169741,110171,67488,4,469015,420220
2025-02-27 17:21:42.401,169749,110210,67516,6,469103,420310
2025-02-27 17:21:42.403,169771,110254,67524,4,469137,420330
2025-02-27 17:21:42.404,169791,110285,67552,2,469178,420376
2025-02-27 17:21:42.406,169795,110303,67559,5,469226,420400
2025-02-27 17:21:42.407,169810,110330,67565,4,469160,420417
2025-02-27 17:21:42.409,169836,110361,67578,3,469177,420410
2025-02-27 17:21:42.412,169848,110383,67593,3,469166,420435
2025-02-27 17:21:42.415,169867,110413,67609,2,469147,420461
2025-02-27 17:21:42.416,169878,110457,67631,4,469171,420501
2025-02-27 17:21:42.418,169903,110494,67646,2,469190,420503
2025-02-27 17:21:42.420,169930,110528,67679,3,469268,420585
2025-02-27 17:21:42.422,169962,110589,67720,6,469234,420658
2025-02-27 17:21:42.423,169981,110667,67770,1,469380,420716
2025-02-27 17:21:42.425,170047,110756,67836,3,469505,420877
2025-02-27 17:21:42.426,170106,110837,67888,5,469688,421042
2025-02-27 17:21:42.427,170162,110901,67938,2,469908,421188
2025-02-27 17:21:42.428,170158,110943,67970,2,470002,421311
2025-02-27 17:21:42.429,170183,111006,68021,4,470023,421353
2025-02-27 17:21:42.542,170210,111038,68036,4,470108,421427
2025-02-27 17:21:42.544,170176,111081,68056,5,470084,421438
2025-02-27 17:21:42.546,170139,111079,68060,5,470124,421399
2025-02-27 17:21:42.548,170057,111069,68047,4,470123,421411
2025-02-27 17:21:42.550,169883,111014,68022,5,470064,421360
2025-02-27 17:21:42.551,169725,110933,67979,1,469976,421155
2025-02-27 17:21:42.553,169542,110840,67923,4,469746,420900
2025-02-27 17:21:42.555,169376,110722,67863,3,469497,420641
2025-02-27 17:21:42.556,169227,110634,67805,4,469306,420368
2025-02-27 17:21:42.558,169117,110558,67761,4,469188,420169
2025-02-27 17:21:42.559,169054,110486,67725,6,469012,419972
2025-02-27 17:21:42.561,169005,110456,67714,6,468883,419886
2025-02-27 17:21:42.562,169003,110468,67713,2,468949,419857
2025-02-27 17:21:42.564,169017,110453,67715,2,469097,419959
2025-02-27 17:21:42.566,169010,110454,67714,4,469151,420035
2025-02-27 17:21:42.568,169046,110438,67703,3,469150,420052
2025-02-27 17:21:42.570,169065,110439,67702,3,469189,420046
2025-02-27 17:21:42.571,169080,110431,67696,6,469225,420053
2025-02-27 17:21:42.573,169105,110419,67705,3,469193,420124
2025-02-27 17:21:42.574,169122,110403,67686,4,469238,420103
2025-02-27 17:21:42.576,169122,110403,67686,4,469238,420103
2025-02-27 17:21:42.579,169139,110395,67693,2,469243,420156
2025-02-27 17:21:42.581,169143,110414,67703,3,469240,420117
2025-02-27 17:21:42.583,169167,110408,67723,6,469339,420162
2025-02-27 17:21:42.585,169190,110430,67733,4,469338,420240
2025-02-27 17:21:42.587,169197,110444,67740,4,469403,420289
2025-02-27 17:21:42.588,169268,110464,67765,4,469493,420373
2025-02-27 17:21:42.590,169314,110492,67792,4,469613,420525
2025-02-27 17:21:42.591,169364,110527,67799,5,469663,420608
2025-02-27 17:21:42.739,169379,110532,67801,3,469757,420720
2025-02-27 17:21:42.741,169410,110522,67803,3,469792,420741
2025-02-27 17:21:42.744,169422,110524,67798,2,469790,420738
2025-02-27 17:21:42.746,169447,110504,67793,6,469798,420698
2025-02-27 17:21:42.749,169426,110516,67785,3,469724,420699
2025-02-27 17:21:42.751,169412,110510,67781,5,469652,420646
2025-02-27 17:21:42.753,169404,110508,67776,5,469629,420643
2025-02-27 17:21:42.756,169394,110507,67778,5,469601,420541
2025-02-27 17:21:42.759,169393,110504,67780,5,469581,420555
2025-02-27 17:21:42.763,169388,110493,67786,5,469548,420517
2025-02-27 17:21:42.765,169375,110488,67779,3,469496,420466
2025-02-27 17:21:42.768,169390,110485,67790,4,469520,420498
2025-02-27 17:21:42.771,169393,110487,67790,4,469450,420463
2025-02-27 17:21:42.773,169385,110479,67786,4,469396,420407
2025-02-27 17:21:42.775,169411,110494,67791,5,469430,420398
2025-02-27 17:21:42.778,169451,110513,67806,3,469391,420431
2025-02-27 17:21:42.781,169446,110532,67811,1,469508,420507
2025-02-27 17:21:42.787,169472,110544,67822,2,469476,420575
2025-02-27 17:21:43.233,169518,110580,67831,2,469540,420609
2025-02-27 17:21:43.363,169543,110599,67845,5,469612,420711
2025-02-27 17:21:43.368,169575,110629,67857,3,469657,420795
2025-02-27 17:21:43.373,169614,110648,67873,4,469696,420864
2025-02-27 17:21:43.379,169631,110666,67891,3,469729,420855
2025-02-27 17:21:43.384,169667,110703,67910,2,469751,420915
2025-02-27 17:21:43.389,169687,110745,67937,5,469818,420976
2025-02-27 17:21:43.394,169716,110765,67944,4,469879,421054
2025-02-27 17:21:43.398,169734,110775,67949,4,469901,421051
2025-02-27 17:21:43.401,169733,110778,67950,3,469829,421051
2025-02-27 17:21:43.404,169769,110778,67952,4,469809,421046
2025-02-27 17:21:43.408,169780,110790,67953,4,469757,420978
2025-02-27 17:21:43.754,169784,110803,67950,5,469716,420953
2025-02-27 17:21:43.756,169794,110803,67952,4,469695,420920
2025-02-27 17:21:43.758,169790,110825,67968,5,469655,420939
2025-02-27 17:21:43.761,169818,110846,67988,3,469592,420902
2025-02-27 17:21:43.763,169844,110876,67995,5,469605,420890
2025-02-27 17:21:43.765,169846,110892,68001,4,469633,420950
2025-02-27 17:21:43.767,169862,110884,68008,6,469612,420944
2025-02-27 17:21:43.769,169857,110900,68002,4,469642,420925
2025-02-27 17:21:43.771,169854,110914,67998,5,469515,420918
2025-02-27 17:21:43.774,169877,110933,68014,6,469518,420836
2025-02-27 17:21:43.776,169889,110958,68034,4,469507,420946
2025-02-27 17:21:43.779,169898,110972,68039,6,469497,420915
2025-02-27 17:21:43.781,169912,110982,68037,2,469472,420896
2025-02-27 17:21:43.783,169899,110964,68029,4,469377,420862
2025-02-27 17:21:43.786,169916,111002,68037,2,469348,420811
2025-02-27 17:21:43.790,169938,111014,68050,4,469352,420867
2025-02-27 17:21:43.793,169959,111035,68054,2,469387,420903
2025-02-27 17:21:43.800,169974,111050,68054,3,469360,420906
2025-02-27 17:21:43.803,170000,111085,68067,4,469321,420910
2025-02-27 17:21:43.987,170013,111112,68074,4,469356,420983
2025-02-27 17:21:43.990,170004,111104,68068,5,469347,420940
2025-02-27 17:21:43.992,170012,111109,68060,3,469276,420932
2025-02-27 17:21:43.994,170012,111109,68060,3,469276,420932
2025-02-27 17:21:43.996,170020,111101,68048,5,469119,420743
2025-02-27 17:21:43.998,170007,111105,68044,3,469032,420685
2025-02-27 17:21:44.000,170000,111107,68042,4,468934,420694
2025-02-27 17:21:44.002,170034,111131,68047,2,468924,420639
2025-02-27 17:21:44.003,170039,111157,68065,5,468902,420663
2025-02-27 17:21:44.006,170082,111189,68083,3,468877,420631
2025-02-27 17:21:44.008,170088,111191,68092,3,468861,420685
2025-02-27 17:21:44.009,170107,111240,68108,5,468911,420648
2025-02-27 17:21:44.011,170124,111261,68127,3,468888,420670
2025-02-27 17:21:44.013,170155,111305,68163,5,468924,420705
2025-02-27 17:21:44.016,170179,111384,68182,4,469008,420792
2025-02-27 17:21:44.018,170193,111432,68218,3,469105,420982
2025-02-27 17:21:44.021,170190,111491,68259,4,469212,421038
2025-02-27 17:21:44.024,170131,111519,68296,2,469340,421135
2025-02-27 17:21:44.026,170053,111533,68316,4,469435,421264
2025-02-27 17:21:44.029,169903,111523,68321,4,469433,421177
2025-02-27 17:21:44.031,169737,111486,68302,8,469359,421087
2025-02-27 17:21:44.033,169566,111427,68284,3,469290,420889
2025-02-27 17:21:44.035,169424,111351,68249,7,469207,420670
2025-02-27 17:21:44.168,169282,111290,68204,4,469040,420493
2025-02-27 17:21:44.170,169193,111218,68167,4,468913,420281
2025-02-27 17:21:44.172,169131,111178,68144,3,468775,420202
2025-02-27 17:21:44.173,169080,111127,68125,4,468690,420054
2025-02-27 17:21:44.175,169093,111107,68105,2,468607,419957
2025-02-27 17:21:44.177,169069,111100,68093,5,468579,419960
2025-02-27 17:21:44.179,169098,111087,68098,3,468598,419928
2025-02-27 17:21:44.181,169119,111111,68099,4,468613,419974
2025-02-27 17:21:44.183,169134,111117,68110,2,468649,420018
2025-02-27 17:21:44.184,169164,111117,68120,3,468722,420085
2025-02-27 17:21:44.185,169188,111137,68127,4,468769,420141
2025-02-27 17:21:44.187,169200,111137,68130,6,468793,420181
2025-02-27 17:21:44.189,169225,111139,68135,0,468796,420171
2025-02-27 17:21:44.191,169234,111160,68135,5,468822,420211
2025-02-27 17:21:44.193,169245,111134,68138,5,468835,420212
2025-02-27 17:21:44.194,169257,111161,68150,4,468856,420254
2025-02-27 17:21:44.197,169277,111188,68165,3,468888,420291
2025-02-27 17:21:44.198,169332,111211,68180,5,468928,420389
2025-02-27 17:21:44.200,169380,111234,68199,6,469040,420504
2025-02-27 17:21:44.203,169428,111256,68201,3,469106,420588
2025-02-27 17:21:44.206,169448,111254,68214,3,469174,420628
2025-02-27 17:21:44.208,169483,111285,68219,3,469213,420688
2025-02-27 17:21:44.209,169510,111283,68216,6,469192,420712
2025-02-27 17:21:44.211,169500,111268,68207,4,469176,420696
2025-02-27 17:21:44.213,169516,111262,68205,5,469064,420671
2025-02-27 17:21:44.215,169492,111239,68198,5,469074,420563
2025-02-27 17:21:44.395,169479,111250,68197,2,468966,420507
2025-02-27 17:21:44.397,169475,111249,68195,4,468904,420479
2025-02-27 17:21:44.400,169454,111248,68212,4,468902,420436
2025-02-27 17:21:44.403,169445,111256,68216,1,468881,420429
2025-02-27 17:21:44.404,169465,111260,68224,4,468908,420424
2025-02-27 17:21:44.406,169463,111244,68221,0,468858,420381
2025-02-27 17:21:44.408,169434,111251,68221,4,468837,420418
2025-02-27 17:21:44.410,169466,111255,68220,2,468795,420367
2025-02-27 17:21:44.412,169469,111258,68219,5,468770,420327
2025-02-27 17:21:44.414,169486,111271,68231,3,468772,420336
2025-02-27 17:21:44.417,169517,111291,68246,3,468752,420363
2025-02-27 17:21:44.433,169530,111325,68259,6,468808,420497
2025-02-27 17:21:44.437,169561,111360,68287,5,468925,420562
2025-02-27 17:21:44.439,169602,111394,68312,3,469006,420610
2025-02-27 17:21:44.441,169637,111392,68316,4,469078,420701
2025-02-27 17:21:44.444,169673,111405,68328,6,469106,420739
2025-02-27 17:21:44.604,169690,111422,68323,2,469070,420783
2025-02-27 17:21:44.605,169692,111416,68328,4,469078,420691
2025-02-27 17:21:44.607,169718,111417,68326,5,468986,420671
2025-02-27 17:21:44.609,169725,111416,68334,4,468898,420653
2025-02-27 17:21:44.611,169747,111427,68339,5,468871,420606
2025-02-27 17:21:44.613,169766,111423,68356,4,468855,420616
2025-02-27 17:21:44.615,169787,111435,68364,3,468844,420616
2025-02-27 17:21:44.617,169795,111444,68373,0,468771,420578
2025-02-27 17:21:44.619,169823,111467,68400,4,468795,420583
2025-02-27 17:21:44.621,169835,111482,68409,5,468812,420582
2025-02-27 17:21:44.622,169854,111509,68424,6,468844,420657
2025-02-27 17:21:44.624,169881,111554,68455,4,468852,420658
2025-02-27 17:21:44.626,169906,111597,68474,2,468914,420749
2025-02-27 17:21:44.628,169931,111630,68517,2,469039,420855
2025-02-27 17:21:44.630,169969,111693,68550,3,469120,420991
2025-02-27 17:21:44.633,169994,111741,68591,5,469242,421097
2025-02-27 17:21:44.635,170036,111801,68615,6,469335,421232
2025-02-27 17:21:44.638,170044,111810,68624,3,469384,421265
2025-02-27 17:21:44.640,170071,111824,68628,3,469394,421252
2025-02-27 17:21:44.643,170071,111824,68628,3,469394,421252
2025-02-27 17:21:44.644,170100,111878,68670,1,469401,421277
2025-02-27 17:21:44.647,170092,111890,68691,3,469444,421279
2025-02-27 17:21:44.649,170100,111911,68697,5,469422,421294
2025-02-27 17:21:44.651,170090,111900,68697,3,469396,421259
2025-02-27 17:21:44.815,170090,111860,68672,5,469267,421163
2025-02-27 17:21:44.817,170089,111839,68660,4,469126,421056
2025-02-27 17:21:44.820,170090,111844,68664,1,469015,420921
2025-02-27 17:21:44.822,170111,111887,68692,3,469002,421034
2025-02-27 17:21:44.823,170158,111953,68726,0,469094,421105
2025-02-27 17:21:44.825,170184,112004,68757,1,469196,421290
2025-02-27 17:21:44.827,170242,112061,68788,3,469288,421331
2025-02-27 17:21:44.829,170262,112084,68820,4,469398,421444
2025-02-27 17:21:44.831,170290,112108,68841,3,469495,421531
2025-02-27 17:21:44.832,170330,112154,68859,4,469466,421529
2025-02-27 17:21:44.835,170329,112169,68870,3,469487,421576
2025-02-27 17:21:44.837,170391,112191,68886,4,469509,421646
2025-02-27 17:21:44.838,170403,112197,68868,6,469536,421627
2025-02-27 17:21:44.840,170415,112221,68880,4,469419,421594
2025-02-27 17:21:44.841,170413,112253,68881,4,469513,421641
2025-02-27 17:21:44.843,170440,112256,68873,5,469488,421692
2025-02-27 17:21:44.845,170419,112266,68859,2,469462,421649
2025-02-27 17:21:44.846,170393,112278,68864,2,469343,421556
2025-02-27 17:21:44.849,170327,112271,68853,3,469337,421536
2025-02-27 17:21:44.852,170243,112260,68854,5,469338,421545
2025-02-27 17:21:44.855,170078,112232,68841,4,469271,421440
2025-02-27 17:21:44.856,169913,112187,68821,4,469257,421314
2025-02-27 17:21:44.859,169767,112155,68794,4,469147,421182
2025-02-27 17:21:44.860,169619,112105,68776,3,469068,421013
2025-02-27 17:21:44.862,169504,112055,68743,4,469049,420900
2025-02-27 17:21:45.097,169402,111989,68689,3,468882,420733
2025-02-27 17:21:45.101,169338,111878,68639,3,468697,420503
2025-02-27 17:21:45.103,169273,111834,68599,3,468526,420246
2025-02-27 17:21:45.107,169241,111795,68575,2,468303,420100
2025-02-27 17:21:45.111,169230,111774,68566,2,468298,420111
2025-02-27 17:21:45.114,169247,111767,68563,4,468248,420104
2025-02-27 17:21:45.118,169255,111761,68561,4,468211,420090
2025-02-27 17:21:45.121,169289,111778,68558,5,468238,420113
2025-02-27 17:21:45.125,169320,111791,68575,3,468340,420192
2025-02-27 17:21:45.130,169359,111799,68584,2,468391,420267
2025-02-27 17:21:45.134,169378,111805,68584,3,468424,420333
2025-02-27 17:21:45.140,169401,111801,68587,5,468438,420363
2025-02-27 17:21:45.143,169430,111828,68611,3,468470,420356
2025-02-27 17:21:45.358,169456,111859,68627,3,468493,420421
2025-02-27 17:21:45.360,169485,111906,68658,3,468598,420481
2025-02-27 17:21:45.362,169485,111906,68658,3,468598,420481
2025-02-27 17:21:45.364,169562,111969,68707,6,468728,420704
2025-02-27 17:21:45.366,169610,112048,68753,2,468987,420902
2025-02-27 17:21:45.368,169686,112104,68791,2,469221,421072
2025-02-27 17:21:45.370,169737,112167,68832,1,469372,421283
2025-02-27 17:21:45.372,169777,112198,68858,3,469499,421442
2025-02-27 17:21:45.374,169811,112208,68875,4,469547,421553
2025-02-27 17:21:45.375,169841,112232,68893,4,469618,421561
2025-02-27 17:21:45.378,169868,112239,68903,4,469640,421625
2025-02-27 17:21:45.379,169862,112246,68906,4,469613,421595
2025-02-27 17:21:45.381,169866,112245,68917,2,469648,421582
2025-02-27 17:21:45.383,169853,112234,68918,3,469592,421569
2025-02-27 17:21:45.385,169832,112223,68911,4,469492,421512
2025-02-27 17:21:45.387,169829,112203,68904,2,469476,421427
2025-02-27 17:21:45.388,169790,112161,68894,3,469322,421271
2025-02-27 17:21:45.391,169780,112143,68884,2,469229,421172
2025-02-27 17:21:45.394,169780,112143,68884,2,469229,421172
2025-02-27 17:21:45.396,169767,112138,68873,4,469103,421086
2025-02-27 17:21:45.398,169784,112146,68876,2,469113,421073
2025-02-27 17:21:45.400,169807,112165,68878,0,469107,421093
2025-02-27 17:21:45.402,169813,112171,68880,3,469140,421166
2025-02-27 17:21:45.404,169831,112165,68874,2,469146,421164
2025-02-27 17:21:45.406,169838,112157,68862,3,469121,421122
2025-02-27 17:21:45.530,169835,112137,68858,4,469012,421079
2025-02-27 17:21:45.532,169863,112150,68864,4,468954,421131
2025-02-27 17:21:45.535,169893,112168,68876,5,468958,421080
2025-02-27 17:21:45.538,169950,112199,68896,6,469026,421161
2025-02-27 17:21:45.540,169966,112228,68926,5,469044,421271
2025-02-27 17:21:45.542,170014,112266,68928,1,469149,421312
2025-02-27 17:21:45.544,170025,112271,68944,2,469242,421389
2025-02-27 17:21:45.546,170043,112275,68936,4,469210,421365
2025-02-27 17:21:45.548,170053,112254,68923,4,469143,421312
2025-02-27 17:21:45.550,170046,112232,68908,4,469012,421271
2025-02-27 17:21:45.552,170043,112210,68903,4,468922,421110
2025-02-27 17:21:45.554,170060,112202,68891,2,468750,421049
2025-02-27 17:21:45.556,170051,112178,68906,6,468714,421026
2025-02-27 17:21:45.558,170063,112191,68873,3,468612,420957
2025-02-27 17:21:45.559,170063,112191,68873,3,468612,420957
2025-02-27 17:21:45.561,170061,112218,68895,4,468497,420887
2025-02-27 17:21:45.563,170072,112201,68896,0,468453,420837
2025-02-27 17:21:45.566,170081,112197,68901,3,468372,420794
2025-02-27 17:21:45.569,170072,112200,68899,1,468336,420741
2025-02-27 17:21:45.571,170086,112221,68909,4,468284,420702
2025-02-27 17:21:45.573,170078,112222,68922,6,468271,420746
2025-02-27 17:21:45.575,170104,112249,68937,8,468264,420706
2025-02-27 17:21:45.577,170116,112253,68942,6,468252,420728
2025-02-27 17:21:45.735,170133,112286,68953,5,468268,420722
2025-02-27 17:21:45.737,170128,112296,68961,1,468261,420786
2025-02-27 17:21:45.739,170141,112302,68969,5,468187,420756
2025-02-27 17:21:45.740,170148,112311,68978,5,468179,420722
2025-02-27 17:21:45.742,170158,112336,68991,3,468193,420703
2025-02-27 17:21:45.744,170188,112350,69009,4,468214,420755
2025-02-27 17:21:45.746,170225,112393,69039,1,468239,420808
2025-02-27 17:21:45.747,170229,112441,69058,5,468265,420854
2025-02-27 17:21:45.749,170273,112478,69082,2,468380,420950
2025-02-27 17:21:45.750,170276,112491,69094,4,468403,420982
2025-02-27 17:21:45.751,170313,112519,69116,5,468417,421045
2025-02-27 17:21:45.753,170353,112543,69140,5,468481,421077
2025-02-27 17:21:45.755,170353,112594,69170,5,468512,421101
2025-02-27 17:21:45.757,170386,112633,69197,3,468592,421221
2025-02-27 17:21:45.758,170417,112684,69231,5,468729,421348
2025-02-27 17:21:45.760,170462,112739,69256,5,468756,421470
2025-02-27 17:21:45.762,170467,112790,69294,5,468899,421517
2025-02-27 17:21:45.763,170446,112811,69310,4,469009,421646
2025-02-27 17:21:45.765,170410,112842,69335,5,469098,421702
2025-02-27 17:21:45.768,170319,112816,69323,3,469157,421732
2025-02-27 17:21:45.770,170165,112743,69290,3,469080,421662
2025-02-27 17:21:45.772,169974,112677,69243,3,468936,421399
2025-02-27 17:21:45.774,169797,112578,69192,4,468702,421133
2025-02-27 17:21:45.775,169640,112490,69134,4,468442,420865
2025-02-27 17:21:45.777,169519,112397,69074,6,468236,420616
2025-02-27 17:21:45.779,169426,112302,69020,6,468078,420391
2025-02-27 17:21:45.781,169366,112246,68975,3,467882,420142
2025-02-27 17:21:45.783,169320,112206,68964,1,467724,420005
2025-02-27 17:21:45.912,169317,112183,68953,7,467654,419969
2025-02-27 17:21:45.914,169325,112195,68963,3,467648,419975
2025-02-27 17:21:45.916,169362,112213,68981,5,467681,420038
2025-02-27 17:21:45.918,169396,112241,69012,4,467781,420128
2025-02-27 17:21:45.920,169433,112263,69031,5,467906,420253
2025-02-27 17:21:45.922,169465,112272,69050,5,467970,420364
2025-02-27 17:21:45.923,169495,112271,69053,1,468024,420408
2025-02-27 17:21:45.925,169486,112264,69041,5,467935,420345
2025-02-27 17:21:45.927,169522,112247,69047,4,467942,420347
2025-02-27 17:21:45.929,169547,112251,69041,5,467957,420349
2025-02-27 17:21:45.931,169559,112256,69065,4,467992,420391
2025-02-27 17:21:45.932,169588,112272,69076,5,467975,420454
2025-02-27 17:21:45.934,169617,112284,69085,4,468026,420467
2025-02-27 17:21:45.936,169672,112306,69106,3,468036,420538
2025-02-27 17:21:45.938,169720,112318,69110,2,468097,420680
2025-02-27 17:21:45.940,169763,112348,69132,4,468198,420677
2025-02-27 17:21:45.941,169782,112364,69139,3,468256,420780
2025-02-27 17:21:45.943,169809,112369,69138,1,468241,420840
2025-02-27 17:21:45.946,169809,112354,69136,4,468215,420790
2025-02-27 17:21:45.949,169794,112339,69124,6,468125,420716
2025-02-27 17:21:45.950,169774,112323,69109,2,468053,420642
2025-02-27 17:21:45.952,169755,112304,69098,5,467900,420531
2025-02-27 17:21:45.954,169721,112286,69089,4,467837,420416
2025-02-27 17:21:45.957,169717,112270,69093,3,467748,420309
2025-02-27 17:21:45.959,169693,112259,69083,3,467728,420248
2025-02-27 17:21:46.117,169695,112257,69080,5,467652,420231
2025-02-27 17:21:46.119,169691,112268,69099,1,467653,420230
2025-02-27 17:21:46.121,169714,112302,69119,1,467703,420242
2025-02-27 17:21:46.123,169730,112308,69137,3,467717,420360
2025-02-27 17:21:46.125,169749,112334,69151,3,467766,420370
2025-02-27 17:21:46.127,169770,112389,69180,4,467878,420443
2025-02-27 17:21:46.129,169798,112408,69187,6,467922,420571
2025-02-27 17:21:46.131,169846,112436,69203,6,468020,420607
2025-02-27 17:21:46.133,169867,112465,69220,3,468044,420689
2025-02-27 17:21:46.134,169903,112503,69244,5,468149,420797
2025-02-27 17:21:46.137,169947,112526,69256,2,468145,420881
2025-02-27 17:21:46.139,169966,112544,69275,5,468269,421007
2025-02-27 17:21:46.141,169988,112551,69281,4,468339,420994
2025-02-27 17:21:46.142,170024,112567,69297,5,468282,421023
2025-02-27 17:21:46.145,170046,112580,69303,2,468217,421071
2025-02-27 17:21:46.147,170073,112607,69313,5,468365,421049
2025-02-27 17:21:46.149,170088,112627,69335,4,468365,421099
2025-02-27 17:21:46.151,170121,112649,69354,5,468394,421170
2025-02-27 17:21:46.155,170140,112680,69359,4,468443,421245
2025-02-27 17:21:46.157,170140,112680,69359,4,468443,421245
2025-02-27 17:21:46.159,170179,112697,69362,4,468462,421285
2025-02-27 17:21:46.161,170174,112668,69344,3,468435,421258
2025-02-27 17:21:46.164,170180,112655,69333,4,468338,421124
2025-02-27 17:21:46.166,170173,112636,69323,4,468155,421083
2025-02-27 17:21:46.298,170167,112616,69317,4,468065,421009
2025-02-27 17:21:46.300,170164,112594,69302,4,468005,420875
2025-02-27 17:21:46.302,170151,112564,69277,7,467832,420824
2025-02-27 17:21:46.304,170159,112532,69252,2,467738,420686
2025-02-27 17:21:46.306,170150,112522,69239,2,467586,420537
2025-02-27 17:21:46.308,170163,112537,69243,3,467551,420522
2025-02-27 17:21:46.309,170168,112557,69256,4,467556,420535
2025-02-27 17:21:46.311,170179,112572,69270,3,467561,420566
2025-02-27 17:21:46.313,170186,112594,69280,4,467564,420597
2025-02-27 17:21:46.314,170202,112614,69294,3,467545,420646
2025-02-27 17:21:46.316,170224,112638,69312,4,467614,420626
2025-02-27 17:21:46.317,170264,112687,69343,5,467646,420738
2025-02-27 17:21:46.319,170293,112753,69376,5,467750,420860
2025-02-27 17:21:46.320,170331,112793,69406,6,467917,420991
2025-02-27 17:21:46.322,170365,112831,69437,5,468007,421138
2025-02-27 17:21:46.324,170397,112888,69464,3,468132,421232
2025-02-27 17:21:46.325,170410,112909,69483,3,468206,421301
2025-02-27 17:21:46.327,170388,112912,69483,2,468215,421287
2025-02-27 17:21:46.331,170354,112908,69494,2,468185,421263
2025-02-27 17:21:46.333,170304,112903,69484,2,468137,421250
2025-02-27 17:21:46.335,170221,112880,69477,4,468114,421209
2025-02-27 17:21:46.337,170058,112842,69466,4,468070,421171
2025-02-27 17:21:46.339,169922,112801,69447,3,467994,420978
2025-02-27 17:21:46.341,169772,112756,69431,3,467858,420841
2025-02-27 17:21:46.344,169647,112689,69400,3,467866,420748
2025-02-27 17:21:46.345,169550,112641,69363,4,467721,420569
2025-02-27 17:21:46.347,169485,112591,69340,6,467620,420471
2025-02-27 17:21:46.494,169421,112554,69326,6,467573,420325
2025-02-27 17:21:46.496,169415,112524,69320,3,467516,420275
2025-02-27 17:21:46.498,169432,112533,69330,2,467553,420263
2025-02-27 17:21:46.500,169427,112530,69340,5,467574,420318
2025-02-27 17:21:46.502,169490,112555,69355,4,467633,420400
2025-02-27 17:21:46.505,169496,112555,69362,4,467724,420458
2025-02-27 17:21:46.507,169543,112581,69369,4,467750,420514
2025-02-27 17:21:46.509,169579,112571,69364,3,467772,420582
2025-02-27 17:21:46.512,169600,112559,69369,2,467788,420590
2025-02-27 17:21:46.515,169629,112545,69370,5,467725,420582
2025-02-27 17:21:46.518,169647,112566,69381,6,467724,420556
2025-02-27 17:21:46.521,169672,112585,69401,2,467809,420646
2025-02-27 17:21:46.524,169726,112605,69414,4,467823,420776
2025-02-27 17:21:46.528,169753,112619,69430,2,467899,420831
2025-02-27 17:21:46.530,169801,112630,69440,2,467974,420849
2025-02-27 17:21:46.533,169850,112664,69456,3,467954,420878
2025-02-27 17:21:46.537,169894,112683,69481,4,468090,421014
2025-02-27 17:21:46.543,169920,112701,69491,5,468076,421036
2025-02-27 17:21:46.715,169928,112712,69501,3,468081,421048
2025-02-27 17:21:46.719,169953,112705,69503,5,468126,421114
2025-02-27 17:21:46.721,169932,112702,69512,5,468054,421060
2025-02-27 17:21:46.724,169913,112689,69494,3,467979,420965
2025-02-27 17:21:46.726,169911,112683,69503,4,467948,420888
2025-02-27 17:21:46.729,169886,112658,69477,5,467928,420884
2025-02-27 17:21:46.731,169872,112639,69473,4,467816,420778
2025-02-27 17:21:46.734,169848,112621,69465,3,467673,420700
2025-02-27 17:21:46.737,169849,112638,69481,3,467689,420625
2025-02-27 17:21:46.741,169849,112652,69492,4,467667,420678
2025-02-27 17:21:46.745,169853,112674,69505,2,467774,420748
2025-02-27 17:21:46.749,169869,112710,69521,4,467806,420768
2025-02-27 17:21:46.752,169892,112724,69546,3,467821,420849
2025-02-27 17:21:46.754,169914,112740,69562,6,467913,420961
2025-02-27 17:21:46.756,169957,112766,69582,5,467952,420967
2025-02-27 17:21:46.759,169969,112790,69602,4,468009,421078
2025-02-27 17:21:46.761,170002,112801,69618,5,468097,421122
2025-02-27 17:21:46.764,170032,112823,69620,8,468166,421211
2025-02-27 17:21:46.952,170070,112847,69639,4,468223,421216
2025-02-27 17:21:46.954,170093,112876,69664,5,468243,421315
2025-02-27 17:21:46.956,170147,112925,69686,3,468305,421415
2025-02-27 17:21:46.958,170166,112937,69701,4,468375,421488
2025-02-27 17:21:46.960,170200,112938,69706,4,468460,421490
2025-02-27 17:21:46.961,170213,112969,69708,3,468406,421559
2025-02-27 17:21:46.963,170232,112969,69721,6,468425,421565
2025-02-27 17:21:46.965,170246,112975,69717,4,468411,421569
2025-02-27 17:21:46.966,170274,112987,69726,5,468420,421574
2025-02-27 17:21:46.968,170305,113002,69735,4,468449,421649
2025-02-27 17:21:46.969,170293,112993,69725,5,468413,421629
2025-02-27 17:21:46.971,170301,112981,69721,4,468333,421546
2025-02-27 17:21:46.973,170307,112977,69713,4,468317,421489
2025-02-27 17:21:46.974,170307,112977,69713,4,468317,421489
2025-02-27 17:21:46.976,170327,113000,69719,3,468233,421447
2025-02-27 17:21:46.978,170333,113000,69728,4,468198,421452
2025-02-27 17:21:46.980,170352,113002,69735,3,468159,421422
2025-02-27 17:21:46.981,170363,112996,69736,4,468141,421430
2025-02-27 17:21:46.984,170374,113014,69744,3,468161,421409
2025-02-27 17:21:46.986,170386,113044,69755,2,468132,421443
2025-02-27 17:21:46.988,170390,113034,69767,3,468196,421449
2025-02-27 17:21:46.990,170422,113066,69784,4,468078,421432
2025-02-27 17:21:46.991,170434,113077,69774,5,468149,421542
2025-02-27 17:21:46.993,170431,113091,69786,5,468205,421521
2025-02-27 17:21:46.995,170415,113093,69776,3,468111,421454
2025-02-27 17:21:46.996,170388,113093,69798,3,468070,421420
2025-02-27 17:21:46.998,170356,113088,69789,4,468098,421414
2025-02-27 17:21:47.000,170261,113039,69767,3,468038,421440
2025-02-27 17:21:47.122,170121,112974,69749,3,467940,421276
2025-02-27 17:21:47.124,169964,112919,69718,2,467799,421048
2025-02-27 17:21:47.127,169823,112842,69669,5,467651,420863
2025-02-27 17:21:47.129,169690,112761,69630,4,467460,420605
2025-02-27 17:21:47.131,169605,112715,69600,3,467292,420475
2025-02-27 17:21:47.133,169517,112666,69588,3,467217,420360
2025-02-27 17:21:47.135,169474,112644,69580,3,467189,420250
2025-02-27 17:21:47.137,169468,112626,69576,3,467185,420257
2025-02-27 17:21:47.139,169478,112629,69583,6,467182,420225
2025-02-27 17:21:47.140,169493,112637,69594,3,467237,420296
2025-02-27 17:21:47.142,169533,112674,69617,2,467360,420331
2025-02-27 17:21:47.144,169587,112699,69650,6,467470,420505
2025-02-27 17:21:47.145,169627,112731,69676,2,467583,420631
2025-02-27 17:21:47.147,169684,112755,69686,4,467643,420781
2025-02-27 17:21:47.148,169720,112748,69692,5,467727,420792
2025-02-27 17:21:47.150,169734,112742,69685,3,467743,420870
2025-02-27 17:21:47.152,169757,112724,69675,5,467669,420798
2025-02-27 17:21:47.153,169777,112744,69688,7,467664,420825
2025-02-27 17:21:47.155,169837,112769,69702,5,467729,420902
2025-02-27 17:21:47.158,169892,112792,69725,4,467768,420957
2025-02-27 17:21:47.160,169941,112831,69757,3,467878,421143
2025-02-27 17:21:47.162,169997,112861,69780,2,468024,421242
2025-02-27 17:21:47.164,170026,112877,69787,4,468084,421278
2025-02-27 17:21:47.166,170056,112903,69796,4,468111,421391
2025-02-27 17:21:47.169,170041,112884,69793,4,468073,421355
2025-02-27 17:21:47.172,170052,112875,69787,3,468005,421370
2025-02-27 17:21:47.329,170029,112859,69776,6,467971,421204
2025-02-27 17:21:47.331,170016,112843,69770,4,467907,421172
2025-02-27 17:21:47.333,169990,112844,69758,4,467831,421090
2025-02-27 17:21:47.335,169958,112804,69743,5,467790,421100
2025-02-27 17:21:47.337,169924,112763,69716,3,467665,420946
2025-02-27 17:21:47.339,169911,112740,69706,5,467563,420826
2025-02-27 17:21:47.341,169889,112724,69698,3,467458,420744
2025-02-27 17:21:47.343,169881,112710,69690,3,467383,420666
2025-02-27 17:21:47.344,169860,112707,69687,2,467266,420620
2025-02-27 17:21:47.346,169870,112708,69695,6,467296,420621
2025-02-27 17:21:47.347,169893,112726,69711,3,467278,420622
2025-02-27 17:21:47.349,169906,112742,69730,2,467370,420690
2025-02-27 17:21:47.351,169941,112778,69751,2,467421,420780
2025-02-27 17:21:47.353,169941,112794,69764,2,467463,420885
2025-02-27 17:21:47.356,169987,112814,69779,4,467512,420858
2025-02-27 17:21:47.358,170001,112818,69769,5,467499,420893
2025-02-27 17:21:47.360,170028,112820,69772,5,467531,420890
2025-02-27 17:21:47.362,170057,112833,69768,2,467518,420925
2025-02-27 17:21:47.366,170079,112853,69776,4,467555,420978
2025-02-27 17:21:47.369,170095,112852,69773,3,467541,420954
2025-02-27 17:21:47.371,170128,112875,69789,2,467484,420972
2025-02-27 17:21:47.373,170146,112872,69789,5,467501,420964
2025-02-27 17:21:47.375,170153,112870,69792,4,467501,421000
2025-02-27 17:21:47.378,170164,112870,69778,5,467400,420973
2025-02-27 17:21:47.509,170167,112859,69783,1,467367,420878
2025-02-27 17:21:47.511,170160,112866,69778,3,467291,420856
2025-02-27 17:21:47.513,170178,112878,69783,3,467267,420818
2025-02-27 17:21:47.515,170194,112896,69807,5,467331,420843
2025-02-27 17:21:47.517,170240,112922,69826,2,467341,420886
2025-02-27 17:21:47.519,170255,112969,69853,3,467326,420988
2025-02-27 17:21:47.521,170290,112995,69873,1,467444,421020
2025-02-27 17:21:47.523,170285,113017,69878,2,467447,421083
2025-02-27 17:21:47.525,170321,113002,69878,4,467466,421052
2025-02-27 17:21:47.527,170300,113001,69877,5,467441,421078
2025-02-27 17:21:47.528,170313,112998,69868,3,467307,420997
2025-02-27 17:21:47.530,170332,113031,69883,4,467294,421021
2025-02-27 17:21:47.531,170330,113074,69911,0,467310,420970
2025-02-27 17:21:47.533,170307,113082,69926,5,467402,421046
2025-02-27 17:21:47.535,170268,113089,69939,1,467435,421092
2025-02-27 17:21:47.536,170222,113055,69925,3,467358,420993
2025-02-27 17:21:47.538,170222,113055,69925,3,467358,420993
2025-02-27 17:21:47.541,169914,112913,69860,5,467125,420701
2025-02-27 17:21:47.543,169765,112842,69807,1,466956,420460
2025-02-27 17:21:47.545,169622,112755,69757,1,466727,420204
2025-02-27 17:21:47.547,169498,112690,69723,3,466594,420014
2025-02-27 17:21:47.549,169394,112633,69676,4,466495,419836
2025-02-27 17:21:47.551,169346,112577,69654,1,466360,419718
2025-02-27 17:21:47.552,169330,112566,69632,3,466334,419671
2025-02-27 17:21:47.554,169328,112559,69631,4,466336,419683
2025-02-27 17:21:47.556,169326,112531,69623,6,466349,419704
2025-02-27 17:21:47.718,169340,112525,69614,5,466371,419678
2025-02-27 17:21:47.720,169340,112535,69617,5,466382,419709
2025-02-27 17:21:47.722,169390,112527,69619,2,466398,419779
2025-02-27 17:21:47.723,169423,112538,69627,4,466421,419798
2025-02-27 17:21:47.725,169461,112542,69623,3,466463,419881
2025-02-27 17:21:47.727,169485,112571,69630,4,466527,419919
2025-02-27 17:21:47.729,169522,112578,69641,6,466595,420001
2025-02-27 17:21:47.731,169569,112606,69659,5,466702,420042
2025-02-27 17:21:47.734,169589,112621,69672,2,466726,420195
2025-02-27 17:21:47.736,169632,112641,69685,3,466746,420194
2025-02-27 17:21:47.737,169673,112658,69707,6,466827,420253
2025-02-27 17:21:47.739,169742,112672,69722,3,466884,420318
2025-02-27 17:21:47.742,169754,112678,69734,5,466822,420397
2025-02-27 17:21:47.743,169799,112706,69757,4,466842,420429
2025-02-27 17:21:47.745,169822,112721,69764,2,466867,420470
2025-02-27 17:21:47.747,169833,112744,69763,3,466885,420501
2025-02-27 17:21:47.749,169832,112733,69753,2,466927,420525
2025-02-27 17:21:47.750,169793,112731,69736,3,466892,420465
2025-02-27 17:21:47.753,169779,112691,69720,1,466814,420470
