Timestamp,PPG1,PPG2,PPG3,PPG4,PPG5
2025-05-30 16:16:51.998,96944,14728,10005,96558,118557
2025-05-30 16:16:52.064,96952,14749,10026,96569,118545
2025-05-30 16:16:52.066,96978,14755,10030,96581,118567
2025-05-30 16:16:52.067,96975,14781,10035,96571,118577
2025-05-30 16:16:52.068,96990,14779,10045,96578,118582
2025-05-30 16:16:52.070,96990,14809,10054,96585,118597
2025-05-30 16:16:52.071,97008,14803,10057,96594,118612
2025-05-30 16:16:52.072,97026,14830,10075,96600,118614
2025-05-30 16:16:52.073,97036,14854,10075,96604,118630
2025-05-30 16:16:52.075,97046,14860,10087,96610,118651
2025-05-30 16:16:52.076,97045,14858,10094,96624,118660
2025-05-30 16:16:52.077,97052,14881,10102,96611,118659
2025-05-30 16:16:52.078,97075,14895,10111,96624,118678
2025-05-30 16:16:52.080,97073,14916,10123,96631,118688
2025-05-30 16:16:52.081,97083,14921,10124,96646,118691
2025-05-30 16:16:52.082,97108,14940,10134,96651,118713
2025-05-30 16:16:52.087,97122,14946,10140,96664,118705
2025-05-30 16:16:52.100,97116,14964,10156,96660,118732
2025-05-30 16:16:52.108,97134,14977,10160,96656,118731
2025-05-30 16:16:52.541,97153,14996,10181,96680,118742
2025-05-30 16:16:52.543,97159,15007,10187,96671,118769
2025-05-30 16:16:52.544,97175,15023,10199,96687,118776
2025-05-30 16:16:52.546,97193,15043,10200,96699,118806
2025-05-30 16:16:52.547,97199,15066,10219,96710,118826
2025-05-30 16:16:52.548,97216,15070,10222,96729,118834
2025-05-30 16:16:52.550,97213,15077,10235,96723,118846
2025-05-30 16:16:52.552,97223,15092,10242,96712,118838
2025-05-30 16:16:52.554,97217,15099,10249,96718,118832
2025-05-30 16:16:52.555,97201,15080,10234,96712,118798
2025-05-30 16:16:52.557,97171,15056,10224,96695,118776
2025-05-30 16:16:52.558,97135,15005,10182,96691,118757
2025-05-30 16:16:52.560,97113,14957,10155,96673,118732
2025-05-30 16:16:52.562,97069,14901,10111,96657,118686
2025-05-30 16:16:52.564,97031,14837,10065,96632,118658
2025-05-30 16:16:52.565,97003,14779,10011,96618,118627
2025-05-30 16:16:52.567,96978,14712,9972,96615,118581
2025-05-30 16:16:52.568,96944,14662,9920,96619,118579
2025-05-30 16:16:52.569,96935,14596,9879,96602,118556
2025-05-30 16:16:52.572,96910,14561,9833,96592,118532
2025-05-30 16:16:52.573,96884,14515,9807,96606,118507
2025-05-30 16:16:52.574,96884,14515,9807,96606,118507
2025-05-30 16:16:52.575,96889,14468,9773,96584,118491
2025-05-30 16:16:52.577,96866,14438,9750,96598,118487
2025-05-30 16:16:52.579,96857,14413,9721,96575,118461
2025-05-30 16:16:52.580,96851,14372,9724,96576,118455
2025-05-30 16:16:52.581,96841,14362,9708,96570,118430
2025-05-30 16:16:52.582,96822,14351,9691,96574,118428
2025-05-30 16:16:52.582,96826,14330,9683,96575,118414
2025-05-30 16:16:52.583,96798,14315,9700,96550,118396
2025-05-30 16:16:52.584,96800,14314,9691,96561,118382
2025-05-30 16:16:52.585,96801,14309,9685,96555,118370
2025-05-30 16:16:52.585,96801,14309,9685,96555,118370
2025-05-30 16:16:52.601,96801,14309,9685,96555,118370
2025-05-30 16:16:52.603,96788,14308,9686,96546,118374
2025-05-30 16:16:52.603,96804,14308,9699,96552,118368
2025-05-30 16:16:52.604,96800,14323,9707,96546,118377
2025-05-30 16:16:52.605,96800,14321,9712,96554,118371
2025-05-30 16:16:52.606,96799,14329,9728,96555,118366
2025-05-30 16:16:52.607,96800,14329,9738,96547,118381
2025-05-30 16:16:52.608,96790,14342,9747,96538,118379
2025-05-30 16:16:52.609,96795,14313,9746,96558,118376
2025-05-30 16:16:52.610,96803,14354,9753,96545,118361
2025-05-30 16:16:52.611,96795,14333,9747,96550,118376
2025-05-30 16:16:52.612,96783,14339,9749,96529,118377
2025-05-30 16:16:52.612,96785,14340,9750,96536,118376
2025-05-30 16:16:52.613,96780,14339,9746,96539,118385
2025-05-30 16:16:52.614,96785,14326,9749,96535,118353
2025-05-30 16:16:52.614,96760,14327,9740,96526,118376
2025-05-30 16:16:52.615,96778,14321,9748,96533,118358
2025-05-30 16:16:52.616,96775,14320,9750,96536,118375
2025-05-30 16:16:52.617,96771,14321,9744,96539,118363
2025-05-30 16:16:52.623,96773,14323,9743,96555,118378
2025-05-30 16:16:52.631,96774,14328,9748,96553,118375
2025-05-30 16:16:52.644,96775,14332,9753,96529,118365
2025-05-30 16:16:52.665,96769,14331,9755,96551,118370
2025-05-30 16:16:52.666,96780,14342,9758,96544,118378
2025-05-30 16:16:52.672,96780,14344,9769,96546,118379
2025-05-30 16:16:52.683,96771,14365,9773,96562,118385
2025-05-30 16:16:52.692,96787,14367,9783,96551,118382
2025-05-30 16:16:52.703,96793,14383,9786,96564,118396
2025-05-30 16:16:52.712,96802,14384,9789,96553,118391
2025-05-30 16:16:52.727,96798,14392,9803,96548,118396
2025-05-30 16:16:52.731,96804,14406,9816,96554,118417
2025-05-30 16:16:52.743,96807,14422,9813,96560,118409
2025-05-30 16:16:52.752,96821,14447,9830,96566,118421
2025-05-30 16:16:52.763,96816,14447,9839,96568,118435
2025-05-30 16:16:52.772,96833,14459,9845,96567,118429
2025-05-30 16:16:52.790,96838,14481,9856,96555,118454
2025-05-30 16:16:52.791,96845,14494,9869,96579,118435
2025-05-30 16:16:52.804,96850,14521,9874,96572,118456
2025-05-30 16:16:52.811,96857,14519,9891,96570,118452
2025-05-30 16:16:52.823,96863,14534,9899,96579,118472
2025-05-30 16:16:52.831,96876,14550,9909,96589,118488
2025-05-30 16:16:52.853,96878,14563,9918,96590,118495
2025-05-30 16:16:52.854,96894,14578,9922,96597,118493
2025-05-30 16:16:52.863,96898,14595,9933,96591,118501
2025-05-30 16:16:52.871,96898,14610,9942,96605,118517
2025-05-30 16:16:52.884,96903,14626,9958,96617,118529
2025-05-30 16:16:52.891,96912,14640,9965,96606,118541
2025-05-30 16:16:52.916,96934,14648,9965,96618,118516
2025-05-30 16:16:52.917,96929,14672,9976,96606,118529
2025-05-30 16:16:52.923,96937,14681,9994,96622,118567
2025-05-30 16:16:52.930,96944,14699,9999,96633,118564
2025-05-30 16:16:52.944,96971,14712,10007,96646,118567
2025-05-30 16:16:52.951,96964,14725,10012,96630,118588
2025-05-30 16:16:52.964,96977,14739,10023,96642,118593
2025-05-30 16:16:52.978,96980,14751,10031,96655,118597
2025-05-30 16:16:52.983,96996,14773,10033,96660,118624
2025-05-30 16:16:52.995,97000,14791,10044,96660,118634
2025-05-30 16:16:53.003,97016,14803,10057,96672,118642
2025-05-30 16:16:53.015,97023,14806,10066,96678,118654
2025-05-30 16:16:53.023,97034,14826,10069,96667,118661
2025-05-30 16:16:53.040,97038,14829,10075,96691,118661
2025-05-30 16:16:53.044,97047,14855,10087,96678,118675
2025-05-30 16:16:53.055,97061,14857,10090,96696,118681
2025-05-30 16:16:53.063,97082,14876,10105,96699,118699
2025-05-30 16:16:53.075,97076,14897,10112,96714,118700
2025-05-30 16:16:53.083,97104,14918,10116,96712,118728
2025-05-30 16:16:53.103,97101,14923,10126,96717,118721
2025-05-30 16:16:53.104,97113,14946,10138,96724,118731
2025-05-30 16:16:53.115,97123,14960,10127,96735,118753
2025-05-30 16:16:53.123,97137,14967,10155,96743,118769
2025-05-30 16:16:53.135,97153,14990,10154,96748,118777
2025-05-30 16:16:53.143,97157,15006,10181,96749,118795
2025-05-30 16:16:53.180,97172,15026,10179,96772,118812
2025-05-30 16:16:53.181,97190,15029,10207,96778,118817
2025-05-30 16:16:53.183,97190,15056,10195,96780,118833
2025-05-30 16:16:53.184,97206,15071,10212,96797,118848
2025-05-30 16:16:53.196,97207,15080,10217,96794,118860
2025-05-30 16:16:53.204,97231,15099,10227,96794,118896
2025-05-30 16:16:53.216,97222,15108,10232,96810,118888
2025-05-30 16:16:53.223,97224,15103,10240,96798,118868
2025-05-30 16:16:53.244,97185,15086,10236,96797,118855
2025-05-30 16:16:53.246,97174,15060,10218,96774,118841
2025-05-30 16:16:53.255,97130,15011,10188,96755,118790
2025-05-30 16:16:53.264,97094,14971,10158,96730,118759
2025-05-30 16:16:53.274,97061,14918,10101,96727,118720
2025-05-30 16:16:53.283,97045,14853,10058,96717,118700
2025-05-30 16:16:53.304,97015,14803,10003,96691,118669
2025-05-30 16:16:53.307,96988,14737,9962,96689,118647
2025-05-30 16:16:53.315,96963,14681,9909,96689,118614
2025-05-30 16:16:53.327,96943,14638,9865,96681,118588
2025-05-30 16:16:53.335,96920,14595,9833,96683,118574
2025-05-30 16:16:53.348,96903,14548,9799,96692,118532
2025-05-30 16:16:53.369,96893,14512,9771,96670,118541
2025-05-30 16:16:53.370,96879,14476,9747,96652,118499
2025-05-30 16:16:53.376,96850,14446,9730,96672,118502
2025-05-30 16:16:53.387,96855,14435,9729,96663,118506
2025-05-30 16:16:53.395,96842,14414,9700,96651,118474
2025-05-30 16:16:53.407,96840,14395,9694,96656,118457
2025-05-30 16:16:53.415,96824,14375,9681,96638,118447
2025-05-30 16:16:53.431,96821,14366,9677,96637,118450
2025-05-30 16:16:53.435,96789,14361,9682,96619,118419
2025-05-30 16:16:53.448,96794,14352,9674,96627,118426
2025-05-30 16:16:53.455,96798,14351,9685,96616,118419
2025-05-30 16:16:53.467,96795,14351,9682,96608,118392
2025-05-30 16:16:53.475,96782,14355,9681,96624,118426
2025-05-30 16:16:53.496,96796,14360,9701,96627,118414
2025-05-30 16:16:53.497,96815,14360,9707,96630,118410
2025-05-30 16:16:53.507,96803,14373,9711,96629,118412
2025-05-30 16:16:53.515,96794,14381,9727,96629,118418
2025-05-30 16:16:53.527,96796,14375,9726,96621,118400
2025-05-30 16:16:53.536,96802,14388,9734,96622,118405
2025-05-30 16:16:53.560,96801,14400,9743,96619,118421
2025-05-30 16:16:53.561,96791,14392,9743,96606,118431
2025-05-30 16:16:53.567,96788,14403,9746,96628,118410
2025-05-30 16:16:53.575,96789,14383,9749,96618,118410
2025-05-30 16:16:53.587,96773,14390,9751,96618,118397
2025-05-30 16:16:53.595,96782,14389,9751,96622,118393
2025-05-30 16:16:53.607,96773,14378,9748,96618,118407
2025-05-30 16:16:53.623,96772,14386,9752,96622,118401
2025-05-30 16:16:53.627,96766,14379,9746,96612,118402
2025-05-30 16:16:53.640,96776,14379,9748,96620,118397
2025-05-30 16:16:53.647,96763,14385,9744,96613,118406
2025-05-30 16:16:53.655,96778,14386,9737,96617,118405
2025-05-30 16:16:53.667,96776,14382,9730,96621,118397
2025-05-30 16:16:53.687,96770,14389,9744,96612,118407
2025-05-30 16:16:53.689,96780,14405,9748,96615,118418
2025-05-30 16:16:53.696,96780,14398,9757,96615,118427
2025-05-30 16:16:53.707,96784,14409,9765,96618,118425
2025-05-30 16:16:53.719,96792,14420,9766,96625,118433
2025-05-30 16:16:53.728,96798,14432,9774,96625,118425
2025-05-30 16:16:53.751,96799,14442,9779,96629,118438
2025-05-30 16:16:53.752,96794,14448,9783,96623,118434
2025-05-30 16:16:53.759,96804,14465,9798,96629,118427
2025-05-30 16:16:53.767,96789,14469,9802,96612,118435
2025-05-30 16:16:53.779,96808,14496,9818,96626,118441
2025-05-30 16:16:53.787,96811,14504,9821,96629,118446
2025-05-30 16:16:53.799,96818,14522,9834,96642,118451
2025-05-30 16:16:53.813,96829,14542,9836,96637,118460
2025-05-30 16:16:53.819,96824,14558,9855,96647,118490
2025-05-30 16:16:53.827,96828,14568,9857,96642,118469
2025-05-30 16:16:53.839,96846,14589,9875,96639,118479
2025-05-30 16:16:53.843,96846,14589,9875,96639,118479
2025-05-30 16:16:53.847,96856,14622,9892,96660,118503
2025-05-30 16:16:53.859,96864,14621,9897,96660,118535
2025-05-30 16:16:53.877,96874,14645,9909,96665,118526
2025-05-30 16:16:53.879,96885,14651,9910,96661,118536
2025-05-30 16:16:53.887,96868,14673,9932,96662,118548
2025-05-30 16:16:53.899,96898,14687,9933,96676,118584
2025-05-30 16:16:53.908,96907,14708,9949,96673,118573
2025-05-30 16:16:53.919,96909,14716,9970,96675,118558
2025-05-30 16:16:53.941,96922,14732,9960,96675,118566
2025-05-30 16:16:53.942,96931,14743,9966,96682,118573
2025-05-30 16:16:53.947,96949,14773,9991,96682,118597
2025-05-30 16:16:53.959,96944,14776,9990,96695,118598
2025-05-30 16:16:53.967,96956,14789,9996,96695,118611
2025-05-30 16:16:53.979,96953,14809,10002,96716,118627
2025-05-30 16:16:53.988,96967,14819,10017,96711,118624
2025-05-30 16:16:54.004,96976,14832,10015,96716,118651
2025-05-30 16:16:54.006,96985,14856,10033,96726,118645
2025-05-30 16:16:54.019,97004,14863,10033,96751,118653
2025-05-30 16:16:54.027,96982,14880,10041,96741,118678
2025-05-30 16:16:54.039,97005,14893,10053,96759,118683
2025-05-30 16:16:54.047,97026,14908,10046,96752,118718
2025-05-30 16:16:54.066,97025,14915,10063,96765,118717
2025-05-30 16:16:54.067,97034,14943,10072,96776,118719
2025-05-30 16:16:54.079,97044,14958,10093,96769,118732
2025-05-30 16:16:54.091,97062,14975,10090,96778,118737
2025-05-30 16:16:54.100,97076,14991,10104,96786,118753
2025-05-30 16:16:54.111,97091,15007,10106,96785,118753
2025-05-30 16:16:54.128,97104,15023,10123,96786,118772
2025-05-30 16:16:54.131,97111,15037,10133,96803,118789
2025-05-30 16:16:54.139,97110,15044,10136,96801,118815
2025-05-30 16:16:54.151,97119,15078,10139,96823,118815
2025-05-30 16:16:54.160,97136,15090,10151,96830,118838
2025-05-30 16:16:54.171,97157,15102,10165,96836,118844
2025-05-30 16:16:54.192,97163,15116,10172,96841,118850
2025-05-30 16:16:54.193,97169,15122,10178,96839,118866
2025-05-30 16:16:54.200,97185,15150,10202,96861,118884
2025-05-30 16:16:54.211,97195,15173,10192,96856,118895
2025-05-30 16:16:54.219,97199,15199,10208,96867,118903
2025-05-30 16:16:54.232,97222,15212,10218,96871,118907
2025-05-30 16:16:54.239,97239,15234,10216,96869,118935
2025-05-30 16:16:54.254,97248,15242,10243,96893,118932
2025-05-30 16:16:54.259,97245,15252,10240,96903,118947
2025-05-30 16:16:54.271,97220,15248,10248,96876,118936
2025-05-30 16:16:54.279,97198,15242,10242,96878,118930
2025-05-30 16:16:54.291,97172,15209,10217,96849,118901
2025-05-30 16:16:54.299,97153,15166,10190,96841,118866
2025-05-30 16:16:54.317,97094,15111,10146,96816,118819
2025-05-30 16:16:54.323,97073,15061,10093,96809,118781
2025-05-30 16:16:54.331,97042,15022,10052,96799,118769
2025-05-30 16:16:54.342,97019,14977,10005,96791,118748
2025-05-30 16:16:54.351,96992,14911,9954,96783,118727
2025-05-30 16:16:54.363,96972,14870,9900,96779,118690
2025-05-30 16:16:54.379,96940,14815,9872,96768,118663
2025-05-30 16:16:54.383,96930,14787,9839,96775,118657
2025-05-30 16:16:54.391,96920,14742,9804,96756,118625
2025-05-30 16:16:54.403,96891,14712,9786,96764,118620
2025-05-30 16:16:54.411,96908,14680,9754,96768,118603
2025-05-30 16:16:54.423,96885,14662,9738,96765,118599
2025-05-30 16:16:54.444,96865,14646,9735,96754,118579
2025-05-30 16:16:54.445,96872,14633,9715,96743,118582
2025-05-30 16:16:54.451,96857,14613,9714,96750,118544
2025-05-30 16:16:54.463,96835,14615,9699,96723,118532
2025-05-30 16:16:54.471,96836,14594,9704,96722,118517
2025-05-30 16:16:54.484,96828,14598,9699,96716,118521
2025-05-30 16:16:54.491,96827,14579,9694,96720,118511
2025-05-30 16:16:54.508,96819,14581,9695,96722,118533
2025-05-30 16:16:54.510,96828,14585,9700,96713,118502
2025-05-30 16:16:54.523,96822,14593,9709,96716,118501
2025-05-30 16:16:54.531,96810,14597,9715,96715,118510
2025-05-30 16:16:54.543,96825,14596,9723,96704,118521
2025-05-30 16:16:54.551,96812,14611,9730,96716,118504
2025-05-30 16:16:54.570,96824,14625,9747,96719,118519
2025-05-30 16:16:54.572,96808,14625,9746,96724,118514
2025-05-30 16:16:54.583,96832,14637,9755,96704,118531
2025-05-30 16:16:54.591,96821,14629,9772,96725,118532
2025-05-30 16:16:54.603,96810,14642,9775,96716,118526
2025-05-30 16:16:54.611,96811,14633,9773,96730,118538
2025-05-30 16:16:54.635,96803,14645,9764,96730,118527
2025-05-30 16:16:54.636,96810,14641,9775,96725,118533
2025-05-30 16:16:54.644,96802,14640,9763,96730,118530
2025-05-30 16:16:54.651,96792,14645,9771,96719,118514
2025-05-30 16:16:54.662,96793,14645,9767,96705,118537
2025-05-30 16:16:54.671,96796,14639,9765,96721,118500
2025-05-30 16:16:54.683,96794,14632,9772,96720,118520
2025-05-30 16:16:54.698,96788,14645,9764,96712,118526
2025-05-30 16:16:54.703,96787,14650,9773,96713,118533
2025-05-30 16:16:54.711,96779,14656,9772,96727,118518
2025-05-30 16:16:54.723,96793,14658,9777,96707,118529
2025-05-30 16:16:54.735,96784,14665,9773,96731,118526
2025-05-30 16:16:54.743,96805,14676,9782,96733,118525
2025-05-30 16:16:54.760,96804,14692,9791,96724,118528
2025-05-30 16:16:54.763,96803,14698,9798,96717,118526
2025-05-30 16:16:54.776,96818,14716,9806,96734,118553
2025-05-30 16:16:54.783,96831,14725,9802,96713,118534
2025-05-30 16:16:54.796,96818,14737,9832,96734,118540
2025-05-30 16:16:54.804,96821,14751,9838,96728,118552
2025-05-30 16:16:54.824,96818,14759,9841,96735,118563
2025-05-30 16:16:54.825,96822,14775,9848,96733,118569
2025-05-30 16:16:54.835,96834,14793,9856,96727,118563
2025-05-30 16:16:54.843,96841,14806,9861,96714,118581
2025-05-30 16:16:54.856,96844,14826,9881,96732,118578
2025-05-30 16:16:54.863,96872,14837,9893,96744,118585
2025-05-30 16:16:54.887,96856,14851,9898,96743,118585
2025-05-30 16:16:54.888,96870,14878,9916,96737,118601
2025-05-30 16:16:54.895,96863,14890,9914,96740,118609
2025-05-30 16:16:54.903,96882,14905,9931,96736,118599
2025-05-30 16:16:54.915,96874,14911,9936,96743,118613
2025-05-30 16:16:54.922,96887,14927,9949,96721,118632
2025-05-30 16:16:54.935,96897,14946,9966,96754,118633
2025-05-30 16:16:54.949,96912,14964,9977,96761,118651
2025-05-30 16:16:54.955,96916,14979,9976,96779,118661
2025-05-30 16:16:54.965,96925,15002,9984,96749,118678
2025-05-30 16:16:54.974,96924,15006,9993,96766,118670
2025-05-30 16:16:54.983,96925,15029,10005,96765,118676
2025-05-30 16:16:54.995,96937,15053,10008,96775,118685
2025-05-30 16:16:55.012,96948,15058,10025,96777,118691
2025-05-30 16:16:55.015,96950,15076,10028,96790,118702
2025-05-30 16:16:55.023,96970,15084,10045,96781,118710
2025-05-30 16:16:55.035,96985,15111,10050,96792,118721
2025-05-30 16:16:55.043,96992,15119,10063,96795,118723
2025-05-30 16:16:55.055,96988,15144,10065,96815,118736
2025-05-30 16:16:55.075,96994,15158,10074,96802,118742
2025-05-30 16:16:55.077,97003,15174,10077,96810,118754
2025-05-30 16:16:55.083,97029,15181,10100,96820,118775
2025-05-30 16:16:55.095,97036,15205,10096,96828,118800
2025-05-30 16:16:55.103,97049,15206,10114,96845,118814
2025-05-30 16:16:55.115,97046,15237,10116,96828,118807
2025-05-30 16:16:55.138,97059,15244,10123,96824,118789
2025-05-30 16:16:55.139,97064,15272,10127,96842,118799
2025-05-30 16:16:55.148,97080,15278,10134,96844,118831
2025-05-30 16:16:55.154,97084,15310,10164,96861,118851
2025-05-30 16:16:55.167,97119,15316,10164,96870,118888
2025-05-30 16:16:55.175,97114,15337,10180,96872,118884
2025-05-30 16:16:55.187,97131,15340,10182,96880,118883
2025-05-30 16:16:55.201,97128,15366,10172,96868,118884
2025-05-30 16:16:55.207,97156,15379,10188,96896,118907
2025-05-30 16:16:55.215,97167,15407,10207,96912,118937
2025-05-30 16:16:55.227,97187,15413,10212,96919,118975
2025-05-30 16:16:55.234,97175,15435,10224,96910,118976
2025-05-30 16:16:55.247,97177,15453,10229,96911,118954
2025-05-30 16:16:55.263,97177,15453,10229,96911,118954
2025-05-30 16:16:55.264,97216,15492,10257,96922,118946
2025-05-30 16:16:55.267,97237,15513,10266,96956,119007
2025-05-30 16:16:55.276,97264,15514,10273,96976,119037
2025-05-30 16:16:55.287,97268,15522,10287,96974,119048
2025-05-30 16:16:55.295,97251,15541,10286,96967,119021
2025-05-30 16:16:55.307,97233,15536,10309,96930,119014
2025-05-30 16:16:55.326,97211,15519,10285,96944,118977
2025-05-30 16:16:55.328,97183,15504,10257,96920,118952
2025-05-30 16:16:55.334,97157,15456,10249,96907,118958
2025-05-30 16:16:55.347,97130,15424,10183,96903,118932
2025-05-30 16:16:55.355,97110,15376,10143,96901,118908
2025-05-30 16:16:55.367,97074,15338,10096,96891,118883
2025-05-30 16:16:55.374,97050,15292,10050,96874,118842
2025-05-30 16:16:55.391,97019,15263,10010,96863,118825
2025-05-30 16:16:55.395,97006,15219,9961,96867,118813
2025-05-30 16:16:55.406,97002,15171,9930,96865,118823
2025-05-30 16:16:55.415,96998,15147,9894,96875,118791
2025-05-30 16:16:55.426,96975,15103,9870,96865,118777
2025-05-30 16:16:55.439,96960,15088,9843,96857,118772
2025-05-30 16:16:55.453,96946,15061,9838,96851,118750
2025-05-30 16:16:55.458,96949,15048,9815,96853,118736
2025-05-30 16:16:55.467,96955,15037,9810,96848,118728
2025-05-30 16:16:55.479,96951,15024,9800,96853,118732
2025-05-30 16:16:55.487,96932,15017,9796,96835,118716
2025-05-30 16:16:55.499,96931,15019,9780,96841,118720
2025-05-30 16:16:55.515,96921,15003,9795,96820,118691
2025-05-30 16:16:55.518,96907,15007,9786,96828,118691
2025-05-30 16:16:55.527,96890,15015,9792,96811,118668
2025-05-30 16:16:55.540,96904,15006,9782,96824,118695
2025-05-30 16:16:55.546,96915,15019,9813,96819,118703
2025-05-30 16:16:55.559,96919,15022,9818,96835,118707
2025-05-30 16:16:55.578,96919,15036,9820,96824,118716
2025-05-30 16:16:55.579,96930,15043,9837,96830,118706
2025-05-30 16:16:55.587,96924,15041,9845,96807,118695
2025-05-30 16:16:55.598,96913,15064,9862,96815,118699
2025-05-30 16:16:55.608,96912,15056,9864,96806,118725
2025-05-30 16:16:55.618,96923,15066,9857,96834,118693
2025-05-30 16:16:55.626,96918,15069,9871,96824,118718
2025-05-30 16:16:55.641,96906,15070,9864,96824,118714
2025-05-30 16:16:55.646,96908,15072,9864,96815,118700
2025-05-30 16:16:55.658,96909,15067,9872,96813,118699
2025-05-30 16:16:55.667,96917,15064,9870,96816,118712
2025-05-30 16:16:55.679,96926,15069,9854,96825,118707
2025-05-30 16:16:55.687,96916,15075,9869,96828,118715
2025-05-30 16:16:55.704,96913,15068,9866,96834,118738
2025-05-30 16:16:55.707,96922,15069,9869,96826,118729
2025-05-30 16:16:55.719,96912,15078,9864,96829,118717
2025-05-30 16:16:55.726,96929,15070,9853,96814,118710
2025-05-30 16:16:55.739,96923,15074,9868,96839,118720
2025-05-30 16:16:55.746,96926,15094,9871,96827,118718
2025-05-30 16:16:55.767,96932,15102,9873,96843,118731
2025-05-30 16:16:55.768,96927,15119,9880,96846,118744
2025-05-30 16:16:55.779,96939,15111,9888,96837,118734
2025-05-30 16:16:55.787,96941,15121,9889,96824,118748
2025-05-30 16:16:55.799,96943,15131,9891,96841,118746
2025-05-30 16:16:55.807,96957,15137,9901,96831,118743
2025-05-30 16:16:55.830,96964,15142,9918,96851,118748
2025-05-30 16:16:55.831,96966,15169,9923,96847,118766
2025-05-30 16:16:55.839,96975,15178,9922,96856,118765
2025-05-30 16:16:55.851,96972,15186,9937,96852,118796
2025-05-30 16:16:55.859,96970,15210,9954,96843,118757
2025-05-30 16:16:55.871,96973,15221,9941,96839,118757
2025-05-30 16:16:55.879,96986,15226,9958,96843,118777
2025-05-30 16:16:55.893,96999,15241,9978,96849,118784
2025-05-30 16:16:55.899,97018,15259,9985,96853,118806
2025-05-30 16:16:55.911,97019,15276,9997,96863,118816
2025-05-30 16:16:55.919,97037,15287,10016,96870,118809
2025-05-30 16:16:55.930,97040,15309,10018,96857,118827
2025-05-30 16:16:55.939,97035,15326,10026,96864,118829
2025-05-30 16:16:55.955,97055,15346,10037,96870,118826
2025-05-30 16:16:55.959,97068,15363,10055,96864,118861
2025-05-30 16:16:55.971,97083,15373,10054,96893,118859
2025-05-30 16:16:55.978,97072,15389,10065,96890,118877
2025-05-30 16:16:55.990,97082,15397,10066,96908,118894
2025-05-30 16:16:55.999,97101,15414,10084,96879,118881
2025-05-30 16:16:56.017,97132,15427,10088,96903,118903
2025-05-30 16:16:56.019,97125,15440,10106,96898,118911
2025-05-30 16:16:56.032,97138,15458,10105,96908,118916
2025-05-30 16:16:56.039,97147,15486,10123,96910,118924
2025-05-30 16:16:56.051,97163,15501,10126,96919,118940
2025-05-30 16:16:56.059,97158,15503,10137,96916,118942
2025-05-30 16:16:56.081,97187,15516,10136,96919,118955
2025-05-30 16:16:56.082,97196,15534,10160,96932,118957
2025-05-30 16:16:56.091,97205,15562,10163,96940,118975
2025-05-30 16:16:56.099,97227,15559,10172,96939,118990
2025-05-30 16:16:56.111,97225,15580,10166,96958,118992
2025-05-30 16:16:56.123,97238,15601,10191,96972,119015
2025-05-30 16:16:56.144,97244,15608,10186,96970,119017
2025-05-30 16:16:56.145,97250,15631,10210,96963,119019
2025-05-30 16:16:56.151,97276,15647,10209,96976,119027
2025-05-30 16:16:56.162,97280,15651,10215,96979,119056
2025-05-30 16:16:56.171,97290,15679,10235,96999,119092
2025-05-30 16:16:56.182,97309,15686,10249,97007,119088
2025-05-30 16:16:56.191,97328,15705,10244,97010,119108
2025-05-30 16:16:56.207,97330,15722,10266,97001,119102
2025-05-30 16:16:56.211,97328,15741,10260,97004,119105
2025-05-30 16:16:56.223,97356,15761,10272,97015,119123
2025-05-30 16:16:56.230,97372,15777,10271,97032,119141
2025-05-30 16:16:56.243,97395,15793,10306,97051,119167
2025-05-30 16:16:56.251,97408,15812,10302,97052,119178
2025-05-30 16:16:56.270,97407,15826,10315,97061,119193
2025-05-30 16:16:56.271,97401,15832,10313,97060,119169
2025-05-30 16:16:56.284,97376,15796,10322,97024,119158
2025-05-30 16:16:56.291,97338,15792,10295,97014,119126
2025-05-30 16:16:56.304,97311,15757,10265,97005,119099
2025-05-30 16:16:56.311,97302,15720,10219,96983,119074
2025-05-30 16:16:56.332,97259,15687,10192,96980,119057
2025-05-30 16:16:56.333,97239,15641,10140,96971,119010
2025-05-30 16:16:56.343,97203,15599,10096,96956,118999
2025-05-30 16:16:56.351,97194,15559,10049,96945,118970
2025-05-30 16:16:56.362,97174,15509,10008,96955,118962
2025-05-30 16:16:56.371,97146,15471,9969,96960,118952
2025-05-30 16:16:56.396,97143,15444,9942,96944,118940
2025-05-30 16:16:56.397,97133,15426,9902,96949,118942
2025-05-30 16:16:56.403,97118,15388,9884,96939,118909
2025-05-30 16:16:56.411,97105,15369,9852,96935,118894
2025-05-30 16:16:56.423,97092,15350,9861,96938,118891
2025-05-30 16:16:56.430,97094,15322,9834,96921,118874
2025-05-30 16:16:56.443,97075,15313,9830,96923,118859
2025-05-30 16:16:56.458,97061,15303,9814,96921,118873
2025-05-30 16:16:56.462,97064,15286,9812,96908,118843
2025-05-30 16:16:56.474,97045,15275,9805,96906,118820
2025-05-30 16:16:56.483,97032,15262,9807,96885,118798
2025-05-30 16:16:56.495,97037,15264,9802,96889,118794
2025-05-30 16:16:56.503,97026,15268,9802,96875,118795
2025-05-30 16:16:56.521,97027,15269,9815,96887,118776
2025-05-30 16:16:56.523,97036,15269,9820,96894,118784
2025-05-30 16:16:56.535,97033,15276,9822,96885,118782
2025-05-30 16:16:56.543,97033,15290,9826,96873,118779
2025-05-30 16:16:56.554,97024,15289,9843,96872,118798
2025-05-30 16:16:56.563,97038,15301,9844,96881,118794
2025-05-30 16:16:56.584,97027,15301,9856,96891,118799
2025-05-30 16:16:56.585,97027,15302,9873,96871,118784
2025-05-30 16:16:56.595,97013,15315,9868,96880,118772
2025-05-30 16:16:56.602,97027,15299,9875,96869,118779
2025-05-30 16:16:56.615,97020,15299,9879,96865,118773
2025-05-30 16:16:56.623,97028,15323,9877,96834,118789
2025-05-30 16:16:56.647,97016,15314,9873,96856,118780
2025-05-30 16:16:56.648,97022,15313,9884,96856,118775
2025-05-30 16:16:56.654,97015,15318,9873,96856,118759
2025-05-30 16:16:56.664,97008,15310,9877,96848,118773
2025-05-30 16:16:56.674,97006,15317,9874,96831,118757
2025-05-30 16:16:56.683,96999,15313,9874,96830,118773
2025-05-30 16:16:56.694,97012,15311,9874,96853,118768
2025-05-30 16:16:56.709,97001,15326,9870,96845,118789
2025-05-30 16:16:56.714,97016,15326,9882,96863,118767
2025-05-30 16:16:56.723,97015,15325,9905,96862,118781
2025-05-30 16:16:56.735,97018,15342,9899,96858,118790
2025-05-30 16:16:56.743,97026,15347,9887,96868,118780
2025-05-30 16:16:56.755,97030,15346,9907,96862,118772
2025-05-30 16:16:56.771,97044,15366,9915,96868,118796
2025-05-30 16:16:56.774,97033,15372,9923,96854,118813
2025-05-30 16:16:56.783,97047,15382,9924,96853,118803
2025-05-30 16:16:56.794,97052,15390,9943,96856,118812
2025-05-30 16:16:56.803,97059,15408,9938,96860,118810
2025-05-30 16:16:56.814,97061,15421,9970,96857,118811
2025-05-30 16:16:56.835,97062,15433,9962,96867,118824
2025-05-30 16:16:56.836,97068,15439,9985,96866,118832
2025-05-30 16:16:56.843,97086,15457,9982,96890,118832
2025-05-30 16:16:56.855,97081,15475,10009,96876,118834
2025-05-30 16:16:56.858,97081,15475,10009,96876,118834
2025-05-30 16:16:56.867,97096,15504,10015,96887,118859
2025-05-30 16:16:56.874,97109,15523,10036,96902,118869
2025-05-30 16:16:56.898,97107,15533,10041,96899,118884
2025-05-30 16:16:56.899,97125,15547,10050,96895,118903
2025-05-30 16:16:56.907,97137,15569,10060,96891,118893
2025-05-30 16:16:56.914,97147,15583,10078,96918,118898
2025-05-30 16:16:56.926,97152,15589,10084,96901,118902
2025-05-30 16:16:56.934,97167,15611,10086,96911,118906
2025-05-30 16:16:56.946,97159,15612,10111,96925,118924
2025-05-30 16:16:56.961,97177,15651,10118,96915,118941
2025-05-30 16:16:56.967,97188,15638,10133,96924,118967
2025-05-30 16:16:56.975,97183,15666,10128,96930,118959
2025-05-30 16:16:56.987,97218,15680,10153,96933,118954
2025-05-30 16:16:56.994,97211,15691,10149,96926,118982
2025-05-30 16:16:57.007,97225,15715,10166,96946,118982
2025-05-30 16:16:57.023,97234,15743,10155,96957,118980
2025-05-30 16:16:57.027,97239,15738,10176,96945,118987
2025-05-30 16:16:57.035,97254,15757,10182,96952,119013
2025-05-30 16:16:57.046,97250,15767,10189,96955,119006
2025-05-30 16:16:57.054,97254,15777,10212,96952,119013
2025-05-30 16:16:57.067,97284,15791,10213,96966,119031
2025-05-30 16:16:57.088,97288,15813,10221,96979,119041
2025-05-30 16:16:57.089,97290,15819,10232,96981,119046
2025-05-30 16:16:57.094,97311,15841,10246,96966,119055
2025-05-30 16:16:57.106,97315,15849,10243,96975,119085
2025-05-30 16:16:57.118,97335,15862,10252,96992,119067
2025-05-30 16:16:57.127,97327,15880,10268,96985,119096
2025-05-30 16:16:57.152,97347,15900,10269,96992,119102
2025-05-30 16:16:57.153,97364,15913,10290,96989,119112
2025-05-30 16:16:57.158,97363,15924,10293,97013,119127
2025-05-30 16:16:57.167,97375,15934,10299,96987,119124
2025-05-30 16:16:57.179,97381,15953,10305,97017,119127
2025-05-30 16:16:57.187,97390,15953,10317,97017,119146
2025-05-30 16:16:57.198,97400,15972,10320,97024,119159
2025-05-30 16:16:57.215,97398,15991,10337,97029,119163
2025-05-30 16:16:57.218,97415,16009,10344,97011,119156
2025-05-30 16:16:57.227,97439,16023,10366,97020,119191
2025-05-30 16:16:57.238,97441,16034,10363,97025,119186
2025-05-30 16:16:57.247,97439,16052,10375,97040,119198
2025-05-30 16:16:57.258,97447,16071,10381,97034,119206
2025-05-30 16:16:57.280,97449,16055,10386,97021,119201
2025-05-30 16:16:57.282,97433,16058,10388,97024,119187
2025-05-30 16:16:57.287,97389,16036,10366,97003,119155
2025-05-30 16:16:57.299,97368,16000,10335,96981,119136
2025-05-30 16:16:57.306,97332,15961,10300,96968,119084
2025-05-30 16:16:57.318,97309,15924,10254,96940,119045
2025-05-30 16:16:57.326,97263,15878,10215,96929,119035
2025-05-30 16:16:57.343,97248,15821,10151,96924,118995
2025-05-30 16:16:57.346,97227,15767,10115,96921,118969
2025-05-30 16:16:57.359,97184,15720,10075,96904,118939
2025-05-30 16:16:57.366,97155,15669,10018,96897,118928
2025-05-30 16:16:57.378,97141,15625,9980,96899,118905
2025-05-30 16:16:57.386,97123,15592,9952,96880,118889
2025-05-30 16:16:57.406,97119,15555,9924,96880,118884
2025-05-30 16:16:57.407,97116,15522,9899,96856,118858
2025-05-30 16:16:57.419,97090,15495,9875,96868,118836
2025-05-30 16:16:57.430,97066,15475,9863,96848,118827
2025-05-30 16:16:57.438,97063,15448,9838,96832,118773
2025-05-30 16:16:57.451,97032,15422,9829,96837,118777
2025-05-30 16:16:57.469,97006,15406,9838,96821,118747
2025-05-30 16:16:57.471,97002,15390,9817,96799,118729
2025-05-30 16:16:57.479,96998,15370,9817,96801,118702
2025-05-30 16:16:57.491,96985,15355,9809,96774,118702
2025-05-30 16:16:57.498,96971,15342,9804,96759,118678
2025-05-30 16:16:57.510,96960,15336,9799,96747,118670
2025-05-30 16:16:57.531,96963,15339,9807,96755,118666
2025-05-30 16:16:57.533,96955,15336,9809,96772,118669
2025-05-30 16:16:57.538,96955,15329,9812,96742,118665
2025-05-30 16:16:57.550,96944,15320,9823,96744,118668
2025-05-30 16:16:57.559,96945,15320,9825,96739,118668
2025-05-30 16:16:57.570,96942,15324,9827,96749,118671
2025-05-30 16:16:57.578,96936,15325,9836,96743,118675
2025-05-30 16:16:57.595,96922,15323,9856,96767,118659
2025-05-30 16:16:57.599,96937,15321,9857,96731,118638
2025-05-30 16:16:57.611,96918,15318,9841,96713,118646
2025-05-30 16:16:57.619,96935,15316,9862,96742,118646
2025-05-30 16:16:57.630,96927,15318,9858,96725,118645
2025-05-30 16:16:57.638,96938,15317,9855,96721,118647
2025-05-30 16:16:57.658,96923,15305,9848,96726,118631
2025-05-30 16:16:57.659,96910,15304,9857,96721,118627
2025-05-30 16:16:57.671,96903,15299,9840,96701,118621
2025-05-30 16:16:57.678,96907,15299,9851,96711,118620
2025-05-30 16:16:57.690,96896,15290,9849,96712,118608
2025-05-30 16:16:57.699,96907,15293,9847,96715,118610
2025-05-30 16:16:57.721,96901,15280,9835,96710,118617
2025-05-30 16:16:57.722,96900,15288,9856,96711,118607
2025-05-30 16:16:57.730,96904,15294,9855,96703,118604
2025-05-30 16:16:57.739,96893,15291,9858,96699,118615
2025-05-30 16:16:57.751,96909,15298,9867,96720,118614
2025-05-30 16:16:57.759,96901,15306,9866,96735,118611
2025-05-30 16:16:57.784,96904,15312,9885,96702,118616
2025-05-30 16:16:57.785,96910,15323,9895,96700,118618
2025-05-30 16:16:57.791,96899,15328,9897,96707,118609
2025-05-30 16:16:57.798,96909,15333,9910,96698,118612
2025-05-30 16:16:57.811,96910,15347,9910,96702,118629
2025-05-30 16:16:57.819,96923,15358,9931,96691,118610
2025-05-30 16:16:57.830,96924,15363,9940,96696,118635
2025-05-30 16:16:57.847,96905,15376,9947,96701,118632
2025-05-30 16:16:57.850,96929,15378,9949,96702,118636
2025-05-30 16:16:57.862,96928,15409,9963,96702,118634
2025-05-30 16:16:57.870,96936,15402,9977,96698,118633
2025-05-30 16:16:57.882,96947,15414,9978,96695,118639
2025-05-30 16:16:57.890,96950,15438,9993,96693,118649
2025-05-30 16:16:57.909,96960,15435,9998,96717,118645
2025-05-30 16:16:57.910,96957,15457,10011,96695,118649
2025-05-30 16:16:57.923,96976,15466,10017,96695,118644
2025-05-30 16:16:57.931,96965,15469,10027,96712,118669
2025-05-30 16:16:57.942,96970,15486,10032,96713,118680
2025-05-30 16:16:57.951,96976,15499,10045,96728,118678
2025-05-30 16:16:57.972,96978,15515,10052,96697,118703
2025-05-30 16:16:57.974,96998,15521,10059,96709,118707
2025-05-30 16:16:57.982,97006,15533,10061,96710,118699
2025-05-30 16:16:57.991,97006,15540,10094,96723,118702
2025-05-30 16:16:58.003,96999,15560,10075,96715,118707
2025-05-30 16:16:58.010,97025,15569,10103,96729,118718
2025-05-30 16:16:58.035,97040,15582,10105,96719,118730
2025-05-30 16:16:58.036,97051,15592,10122,96727,118754
2025-05-30 16:16:58.042,97038,15602,10125,96721,118758
2025-05-30 16:16:58.050,97055,15616,10131,96756,118744
2025-05-30 16:16:58.063,97061,15630,10136,96742,118755
2025-05-30 16:16:58.070,97070,15646,10147,96755,118787
2025-05-30 16:16:58.083,97095,15653,10138,96743,118792
2025-05-30 16:16:58.098,97090,15669,10160,96777,118791
2025-05-30 16:16:58.103,97107,15675,10165,96757,118797
2025-05-30 16:16:58.111,97115,15691,10178,96779,118816
2025-05-30 16:16:58.122,97109,15705,10182,96770,118823
2025-05-30 16:16:58.130,97131,15719,10196,96769,118840
2025-05-30 16:16:58.142,97135,15728,10206,96770,118841
2025-05-30 16:16:58.161,97159,15740,10220,96797,118859
2025-05-30 16:16:58.163,97166,15764,10240,96791,118859
2025-05-30 16:16:58.174,97159,15770,10231,96801,118889
2025-05-30 16:16:58.182,97183,15779,10239,96799,118893
2025-05-30 16:16:58.195,97200,15799,10254,96801,118903
2025-05-30 16:16:58.202,97220,15808,10256,96816,118920
2025-05-30 16:16:58.223,97218,15820,10273,96827,118921
2025-05-30 16:16:58.224,97252,15843,10287,96819,118934
2025-05-30 16:16:58.234,97249,15848,10290,96842,118943
2025-05-30 16:16:58.242,97254,15863,10292,96835,118951
2025-05-30 16:16:58.254,97276,15869,10303,96851,118959
2025-05-30 16:16:58.266,97290,15895,10310,96840,118983
2025-05-30 16:16:58.267,97290,15895,10310,96840,118983
2025-05-30 16:16:58.287,97315,15922,10327,96868,119003
2025-05-30 16:16:58.288,97321,15932,10340,96873,119026
2025-05-30 16:16:58.295,97334,15946,10345,96889,119033
2025-05-30 16:16:58.302,97325,15951,10365,96888,119038
2025-05-30 16:16:58.314,97314,15952,10364,96884,119033
2025-05-30 16:16:58.322,97297,15944,10363,96886,119010
2025-05-30 16:16:58.335,97277,15917,10339,96852,118978
2025-05-30 16:16:58.350,97251,15870,10316,96848,118956
2025-05-30 16:16:58.355,97213,15829,10283,96811,118909
2025-05-30 16:16:58.362,97170,15783,10222,96814,118892
2025-05-30 16:16:58.375,97154,15718,10178,96809,118869
2025-05-30 16:16:58.383,97130,15660,10125,96790,118841
2025-05-30 16:16:58.395,97102,15604,10084,96773,118833
2025-05-30 16:16:58.413,97083,15543,10041,96778,118804
2025-05-30 16:16:58.414,97063,15498,9990,96762,118777
2025-05-30 16:16:58.422,97035,15443,9964,96756,118763
2025-05-30 16:16:58.434,97030,15421,9931,96748,118738
2025-05-30 16:16:58.442,97009,15367,9916,96749,118711
2025-05-30 16:16:58.453,96989,15331,9881,96748,118689
2025-05-30 16:16:58.477,96987,15300,9858,96731,118669
2025-05-30 16:16:58.478,96972,15267,9853,96734,118681
2025-05-30 16:16:58.487,96947,15244,9835,96713,118635
2025-05-30 16:16:58.494,96938,15229,9830,96699,118612
2025-05-30 16:16:58.507,96914,15201,9816,96703,118584
2025-05-30 16:16:58.515,96904,15183,9824,96663,118579
2025-05-30 16:16:58.539,96896,15156,9807,96658,118544
2025-05-30 16:16:58.540,96880,15143,9795,96659,118520
2025-05-30 16:16:58.547,96866,15124,9791,96633,118523
2025-05-30 16:16:58.555,96855,15120,9794,96642,118512
2025-05-30 16:16:58.566,96855,15112,9800,96635,118510
2025-05-30 16:16:58.574,96867,15117,9805,96631,118504
2025-05-30 16:16:58.586,96860,15117,9812,96642,118503
2025-05-30 16:16:58.601,96871,15108,9832,96641,118498
2025-05-30 16:16:58.606,96866,15108,9828,96625,118504
2025-05-30 16:16:58.614,96867,15109,9827,96643,118516
2025-05-30 16:16:58.626,96849,15112,9826,96622,118507
2025-05-30 16:16:58.635,96855,15107,9836,96629,118491
2025-05-30 16:16:58.646,96841,15093,9844,96611,118487
2025-05-30 16:16:58.663,96846,15087,9839,96624,118490
2025-05-30 16:16:58.666,96840,15086,9850,96621,118485
2025-05-30 16:16:58.674,96849,15074,9857,96623,118481
2025-05-30 16:16:58.686,96835,15071,9840,96620,118484
2025-05-30 16:16:58.695,96819,15065,9831,96620,118465
2025-05-30 16:16:58.706,96832,15056,9843,96610,118479
2025-05-30 16:16:58.726,96820,15063,9831,96617,118476
2025-05-30 16:16:58.727,96808,15050,9833,96605,118464
2025-05-30 16:16:58.734,96823,15055,9836,96614,118463
2025-05-30 16:16:58.746,96807,15049,9842,96599,118474
2025-05-30 16:16:58.755,96821,15045,9850,96615,118476
2025-05-30 16:16:58.766,96827,15058,9842,96603,118466
2025-05-30 16:16:58.775,96820,15037,9856,96597,118476
2025-05-30 16:16:58.790,96831,15046,9850,96588,118456
2025-05-30 16:16:58.794,96827,15051,9860,96605,118467
2025-05-30 16:16:58.806,96818,15067,9866,96603,118476
2025-05-30 16:16:58.814,96849,15048,9873,96584,118459
2025-05-30 16:16:58.827,96821,15075,9888,96583,118466
2025-05-30 16:16:58.835,96833,15077,9889,96587,118468
2025-05-30 16:16:58.852,96824,15086,9897,96588,118478
2025-05-30 16:16:58.858,96837,15096,9903,96594,118460
2025-05-30 16:16:58.867,96827,15098,9914,96595,118467
2025-05-30 16:16:58.878,96860,15108,9918,96590,118489
2025-05-30 16:16:58.887,96828,15103,9935,96583,118480
2025-05-30 16:16:58.898,96854,15132,9947,96605,118487
2025-05-30 16:16:58.914,96849,15147,9953,96590,118495
2025-05-30 16:16:58.918,96867,15136,9957,96583,118487
2025-05-30 16:16:58.926,96873,15159,9969,96593,118503
2025-05-30 16:16:58.938,96872,15172,9980,96601,118499
2025-05-30 16:16:58.947,96895,15181,9993,96590,118509
2025-05-30 16:16:58.958,96895,15190,10000,96618,118518
2025-05-30 16:16:58.978,96899,15206,10018,96601,118518
2025-05-30 16:16:58.979,96889,15218,10021,96594,118514
2025-05-30 16:16:58.986,96900,15234,10019,96606,118518
2025-05-30 16:16:58.998,96915,15232,10038,96607,118542
2025-05-30 16:16:59.006,96924,15250,10050,96608,118526
2025-05-30 16:16:59.019,96928,15260,10047,96618,118549
2025-05-30 16:16:59.026,96929,15266,10058,96590,118553
2025-05-30 16:16:59.040,96946,15278,10071,96611,118564
2025-05-30 16:16:59.047,96949,15296,10074,96612,118552
2025-05-30 16:16:59.058,96957,15303,10087,96625,118580
2025-05-30 16:16:59.066,96979,15315,10093,96620,118576
2025-05-30 16:16:59.078,96972,15308,10107,96634,118590
2025-05-30 16:16:59.086,96981,15336,10122,96622,118605
2025-05-30 16:16:59.103,96991,15345,10118,96642,118615
2025-05-30 16:16:59.106,96995,15358,10126,96636,118618
2025-05-30 16:16:59.119,97006,15368,10136,96632,118630
2025-05-30 16:16:59.126,97023,15384,10154,96649,118642
2025-05-30 16:16:59.139,97019,15392,10157,96662,118633
2025-05-30 16:16:59.146,97037,15409,10169,96670,118660
2025-05-30 16:16:59.166,97044,15427,10171,96670,118675
2025-05-30 16:16:59.170,97038,15432,10176,96657,118686
2025-05-30 16:16:59.178,97056,15450,10187,96664,118675
2025-05-30 16:16:59.190,97063,15461,10200,96680,118693
2025-05-30 16:16:59.198,97074,15475,10202,96687,118715
2025-05-30 16:16:59.211,97105,15476,10217,96688,118716
2025-05-30 16:16:59.229,97092,15498,10222,96707,118720
2025-05-30 16:16:59.230,97117,15505,10238,96710,118740
2025-05-30 16:16:59.238,97137,15520,10242,96712,118743
2025-05-30 16:16:59.250,97143,15543,10263,96726,118768
2025-05-30 16:16:59.258,97151,15555,10265,96724,118770
2025-05-30 16:16:59.271,97158,15565,10276,96736,118792
2025-05-30 16:16:59.293,97158,15579,10274,96735,118779
2025-05-30 16:16:59.294,97185,15599,10290,96740,118819
2025-05-30 16:16:59.297,97186,15603,10300,96745,118806
2025-05-30 16:16:59.310,97211,15621,10314,96761,118813
2025-05-30 16:16:59.318,97234,15633,10319,96765,118846
2025-05-30 16:16:59.331,97231,15651,10329,96761,118879
2025-05-30 16:16:59.338,97221,15664,10344,96779,118848
2025-05-30 16:16:59.355,97260,15676,10344,96783,118895
2025-05-30 16:16:59.358,97265,15696,10368,96793,118885
2025-05-30 16:16:59.370,97285,15707,10374,96789,118902
2025-05-30 16:16:59.378,97292,15724,10374,96811,118915
2025-05-30 16:16:59.391,97296,15734,10385,96806,118930
2025-05-30 16:16:59.398,97308,15751,10394,96806,118953
2025-05-30 16:16:59.418,97316,15751,10405,96827,118945
2025-05-30 16:16:59.419,97298,15748,10405,96819,118923
2025-05-30 16:16:59.431,97286,15728,10392,96805,118936
2025-05-30 16:16:59.438,97254,15695,10364,96776,118881
2025-05-30 16:16:59.450,97231,15654,10353,96775,118861
2025-05-30 16:16:59.457,97185,15606,10317,96754,118833
2025-05-30 16:16:59.481,97160,15540,10267,96735,118790
2025-05-30 16:16:59.483,97130,15493,10209,96735,118766
2025-05-30 16:16:59.490,97125,15423,10161,96732,118720
2025-05-30 16:16:59.502,97078,15371,10116,96706,118695
2025-05-30 16:16:59.510,97064,15293,10076,96697,118682
2025-05-30 16:16:59.523,97044,15262,10032,96705,118649
2025-05-30 16:16:59.530,97021,15194,10002,96694,118624
2025-05-30 16:16:59.546,97017,15159,9963,96670,118596
2025-05-30 16:16:59.549,96996,15123,9954,96682,118566
2025-05-30 16:16:59.562,96998,15081,9919,96650,118575
2025-05-30 16:16:59.570,96947,15058,9908,96670,118553
2025-05-30 16:16:59.582,96956,15022,9895,96631,118538
2025-05-30 16:16:59.590,96929,14992,9875,96633,118500
2025-05-30 16:16:59.608,96923,14986,9874,96606,118488
2025-05-30 16:16:59.610,96903,14958,9870,96608,118437
2025-05-30 16:16:59.622,96898,14935,9851,96580,118429
2025-05-30 16:16:59.630,96871,14915,9849,96579,118414
2025-05-30 16:16:59.642,96847,14900,9844,96569,118385
2025-05-30 16:16:59.650,96851,14871,9834,96544,118388
2025-05-30 16:16:59.671,96852,14878,9827,96535,118373
2025-05-30 16:16:59.674,96847,14870,9842,96554,118385
2025-05-30 16:16:59.675,96847,14870,9842,96554,118385
2025-05-30 16:16:59.681,96846,14868,9858,96549,118380
2025-05-30 16:16:59.690,96847,14867,9852,96543,118381
2025-05-30 16:16:59.702,96841,14863,9857,96546,118375
2025-05-30 16:16:59.711,96848,14862,9858,96538,118363
2025-05-30 16:16:59.734,96823,14864,9866,96538,118364
2025-05-30 16:16:59.735,96817,14865,9880,96539,118365
2025-05-30 16:16:59.742,96831,14868,9873,96540,118377
2025-05-30 16:16:59.750,96816,14856,9879,96535,118352
2025-05-30 16:16:59.761,96812,14856,9880,96543,118356
2025-05-30 16:16:59.770,96814,14844,9880,96525,118333
2025-05-30 16:16:59.782,96820,14839,9876,96550,118320
2025-05-30 16:16:59.797,96804,14833,9867,96527,118328
2025-05-30 16:16:59.803,96798,14828,9873,96537,118347
2025-05-30 16:16:59.811,96795,14820,9876,96533,118331
2025-05-30 16:16:59.822,96807,14818,9866,96524,118338
2025-05-30 16:16:59.830,96800,14812,9867,96511,118324
2025-05-30 16:16:59.842,96792,14816,9877,96517,118333
2025-05-30 16:16:59.859,96793,14812,9874,96513,118325
2025-05-30 16:16:59.862,96783,14808,9883,96525,118340
2025-05-30 16:16:59.874,96805,14819,9889,96521,118332
2025-05-30 16:16:59.882,96798,14823,9893,96505,118320
2025-05-30 16:16:59.894,96804,14830,9894,96509,118322
2025-05-30 16:16:59.902,96792,14840,9899,96510,118321
2025-05-30 16:16:59.922,96814,14816,9906,96519,118323
2025-05-30 16:16:59.923,96801,14848,9914,96504,118324
2025-05-30 16:16:59.934,96810,14852,9926,96509,118323
2025-05-30 16:16:59.942,96806,14861,9938,96509,118342
2025-05-30 16:16:59.954,96807,14865,9941,96514,118349
2025-05-30 16:16:59.962,96806,14883,9946,96516,118333
2025-05-30 16:16:59.985,96819,14882,9969,96491,118340
2025-05-30 16:16:59.987,96820,14902,9961,96502,118343
2025-05-30 16:16:59.994,96828,14924,9977,96520,118353
2025-05-30 16:17:00.002,96846,14930,9995,96502,118360
2025-05-30 16:17:00.014,96849,14936,10005,96504,118387
2025-05-30 16:17:00.022,96833,14947,10000,96512,118365
2025-05-30 16:17:00.034,96845,14945,10015,96514,118371
2025-05-30 16:17:00.048,96859,14973,10031,96536,118375
2025-05-30 16:17:00.054,96866,14993,10033,96520,118379
2025-05-30 16:17:00.062,96868,15000,10040,96526,118377
2025-05-30 16:17:00.074,96880,15005,10047,96522,118389
2025-05-30 16:17:00.083,96883,15032,10061,96519,118406
2025-05-30 16:17:00.094,96893,15030,10071,96527,118408
2025-05-30 16:17:00.110,96884,15048,10074,96526,118416
2025-05-30 16:17:00.115,96900,15048,10083,96518,118431
2025-05-30 16:17:00.122,96903,15071,10086,96530,118423
2025-05-30 16:17:00.134,96924,15087,10102,96524,118460
2025-05-30 16:17:00.142,96930,15082,10118,96535,118467
2025-05-30 16:17:00.154,96934,15109,10130,96530,118450
2025-05-30 16:17:00.173,96945,15117,10114,96555,118457
2025-05-30 16:17:00.174,96951,15132,10140,96553,118472
2025-05-30 16:17:00.187,96966,15141,10133,96555,118474
2025-05-30 16:17:00.194,96993,15163,10145,96545,118486
2025-05-30 16:17:00.206,96985,15166,10167,96563,118501
2025-05-30 16:17:00.215,96993,15200,10164,96565,118489
2025-05-30 16:17:00.237,97007,15196,10182,96573,118497
2025-05-30 16:17:00.238,97013,15207,10184,96575,118530
2025-05-30 16:17:00.246,97023,15216,10195,96582,118532
2025-05-30 16:17:00.254,97034,15234,10206,96581,118547
2025-05-30 16:17:00.265,97048,15246,10228,96588,118549
2025-05-30 16:17:00.274,97037,15263,10221,96602,118562
2025-05-30 16:17:00.300,97065,15275,10220,96596,118577
2025-05-30 16:17:00.301,97069,15296,10247,96607,118601
2025-05-30 16:17:00.306,97087,15299,10234,96621,118600
2025-05-30 16:17:00.314,97093,15314,10242,96609,118614
2025-05-30 16:17:00.326,97090,15322,10264,96624,118619
2025-05-30 16:17:00.334,97113,15349,10282,96638,118633
2025-05-30 16:17:00.346,97137,15358,10289,96631,118649
2025-05-30 16:17:00.362,97126,15380,10298,96630,118659
2025-05-30 16:17:00.366,97155,15387,10299,96642,118675
2025-05-30 16:17:00.373,97181,15406,10320,96652,118677
2025-05-30 16:17:00.385,97170,15408,10324,96659,118680
2025-05-30 16:17:00.394,97179,15441,10333,96663,118706
2025-05-30 16:17:00.406,97184,15452,10339,96680,118717
2025-05-30 16:17:00.425,97200,15469,10349,96689,118737
2025-05-30 16:17:00.426,97233,15480,10361,96684,118742
2025-05-30 16:17:00.433,97251,15503,10371,96705,118767
2025-05-30 16:17:00.446,97250,15511,10380,96715,118780
2025-05-30 16:17:00.458,97276,15536,10388,96725,118780
2025-05-30 16:17:00.465,97264,15524,10407,96729,118792
2025-05-30 16:17:00.489,97265,15544,10404,96724,118795
2025-05-30 16:17:00.490,97253,15537,10418,96713,118777
2025-05-30 16:17:00.498,97242,15530,10405,96697,118767
2025-05-30 16:17:00.505,97227,15479,10387,96680,118747
2025-05-30 16:17:00.517,97195,15447,10358,96669,118712
2025-05-30 16:17:00.526,97159,15397,10306,96663,118664
2025-05-30 16:17:00.538,97130,15338,10265,96646,118640
2025-05-30 16:17:00.553,97106,15283,10216,96639,118612
2025-05-30 16:17:00.558,97080,15228,10172,96627,118585
2025-05-30 16:17:00.567,97067,15163,10126,96607,118546
2025-05-30 16:17:00.578,97053,15119,10088,96601,118545
2025-05-30 16:17:00.586,97016,15057,10044,96586,118500
2025-05-30 16:17:00.597,96996,15011,10015,96594,118503
2025-05-30 16:17:00.615,96981,14979,9981,96569,118465
2025-05-30 16:17:00.618,96969,14944,9963,96573,118451
2025-05-30 16:17:00.626,96951,14915,9938,96559,118421
2025-05-30 16:17:00.638,96939,14884,9920,96558,118405
2025-05-30 16:17:00.646,96924,14858,9918,96549,118407
2025-05-30 16:17:00.658,96918,14837,9905,96522,118381
2025-05-30 16:17:00.678,96894,14811,9891,96511,118342
2025-05-30 16:17:00.679,96881,14796,9890,96503,118328
2025-05-30 16:17:00.686,96868,14783,9877,96508,118303
2025-05-30 16:17:00.698,96855,14757,9874,96501,118304
2025-05-30 16:17:00.707,96834,14751,9866,96480,118282
2025-05-30 16:17:00.718,96831,14740,9855,96471,118284
2025-05-30 16:17:00.725,96824,14752,9864,96464,118283
2025-05-30 16:17:00.741,96832,14739,9867,96468,118259
2025-05-30 16:17:00.745,96818,14743,9873,96462,118268
2025-05-30 16:17:00.758,96830,14746,9887,96460,118260
2025-05-30 16:17:00.765,96818,14743,9892,96459,118261
2025-05-30 16:17:00.778,96835,14741,9892,96466,118271
2025-05-30 16:17:00.787,96826,14734,9904,96469,118266
2025-05-30 16:17:00.804,96827,14747,9907,96469,118277
2025-05-30 16:17:00.807,96821,14736,9902,96473,118268
2025-05-30 16:17:00.819,96805,14742,9910,96462,118255
2025-05-30 16:17:00.830,96810,14736,9912,96451,118264
2025-05-30 16:17:00.838,96810,14731,9912,96451,118250
2025-05-30 16:17:00.850,96804,14723,9903,96462,118266
2025-05-30 16:17:00.867,96803,14714,9902,96455,118256
2025-05-30 16:17:00.871,96794,14728,9902,96447,118236
2025-05-30 16:17:00.878,96791,14718,9918,96453,118234
2025-05-30 16:17:00.890,96796,14728,9914,96445,118226
2025-05-30 16:17:00.898,96780,14724,9895,96441,118236
2025-05-30 16:17:00.909,96795,14723,9916,96451,118220
2025-05-30 16:17:00.930,96786,14719,9902,96452,118245
2025-05-30 16:17:00.931,96785,14724,9917,96449,118257
2025-05-30 16:17:00.938,96794,14719,9919,96446,118238
2025-05-30 16:17:00.949,96781,14743,9921,96453,118233
2025-05-30 16:17:00.958,96790,14728,9919,96445,118225
2025-05-30 16:17:00.970,96794,14748,9943,96441,118243
2025-05-30 16:17:00.978,96808,14752,9953,96433,118239
2025-05-30 16:17:00.994,96802,14773,9944,96423,118233
2025-05-30 16:17:00.998,96811,14771,9959,96439,118274
2025-05-30 16:17:01.010,96803,14804,9952,96441,118255
2025-05-30 16:17:01.017,96807,14789,9967,96440,118251
2025-05-30 16:17:01.030,96808,14804,9980,96443,118237
2025-05-30 16:17:01.039,96807,14803,9985,96437,118264
2025-05-30 16:17:01.057,96816,14821,9995,96451,118263
2025-05-30 16:17:01.058,96810,14829,10000,96437,118272
2025-05-30 16:17:01.070,96819,14840,10037,96441,118261
2025-05-30 16:17:01.082,96848,14858,10021,96431,118286
2025-05-30 16:17:01.083,96848,14858,10021,96431,118286
2025-05-30 16:17:01.090,96865,14885,10043,96451,118300
2025-05-30 16:17:01.097,96859,14907,10052,96447,118299
2025-05-30 16:17:01.120,96863,14922,10058,96443,118309
2025-05-30 16:17:01.121,96859,14935,10073,96462,118335
2025-05-30 16:17:01.129,96877,14926,10080,96454,118334
2025-05-30 16:17:01.137,96878,14952,10090,96457,118349
2025-05-30 16:17:01.150,96887,14989,10099,96470,118350
2025-05-30 16:17:01.157,96899,14983,10097,96473,118355
2025-05-30 16:17:01.182,96898,14993,10119,96478,118361
2025-05-30 16:17:01.183,96908,15006,10126,96484,118380
2025-05-30 16:17:01.190,96936,15019,10127,96484,118370
2025-05-30 16:17:01.202,96954,15029,10139,96496,118413
2025-05-30 16:17:01.210,96957,15043,10145,96489,118389
2025-05-30 16:17:01.222,96960,15058,10163,96494,118421
2025-05-30 16:17:01.230,96959,15072,10172,96494,118420
2025-05-30 16:17:01.245,96953,15082,10182,96485,118428
2025-05-30 16:17:01.250,96963,15096,10180,96496,118415
2025-05-30 16:17:01.261,96972,15112,10201,96504,118434
2025-05-30 16:17:01.270,96997,15127,10199,96521,118442
2025-05-30 16:17:01.282,97002,15133,10208,96520,118464
2025-05-30 16:17:01.290,97022,15158,10230,96526,118465
2025-05-30 16:17:01.307,97028,15171,10230,96531,118472
2025-05-30 16:17:01.309,97052,15188,10239,96529,118476
2025-05-30 16:17:01.322,97043,15204,10244,96547,118509
2025-05-30 16:17:01.329,97050,15204,10251,96552,118507
2025-05-30 16:17:01.342,97065,15219,10264,96556,118558
2025-05-30 16:17:01.350,97075,15235,10272,96567,118544
2025-05-30 16:17:01.370,97082,15255,10275,96564,118545
2025-05-30 16:17:01.371,97090,15267,10291,96578,118565
2025-05-30 16:17:01.382,97114,15283,10300,96593,118590
2025-05-30 16:17:01.390,97108,15296,10301,96589,118602
2025-05-30 16:17:01.401,97128,15306,10312,96597,118599
2025-05-30 16:17:01.410,97156,15329,10325,96601,118615
2025-05-30 16:17:01.432,97149,15343,10327,96592,118611
2025-05-30 16:17:01.434,97166,15350,10351,96602,118623
2025-05-30 16:17:01.441,97173,15390,10354,96613,118656
2025-05-30 16:17:01.450,97211,15395,10375,96627,118659
2025-05-30 16:17:01.462,97213,15402,10377,96642,118702
2025-05-30 16:17:01.474,97226,15420,10376,96661,118695
2025-05-30 16:17:01.481,97217,15440,10387,96657,118711
2025-05-30 16:17:01.495,97233,15448,10400,96656,118690
2025-05-30 16:17:01.502,97241,15459,10405,96667,118728
2025-05-30 16:17:01.514,97270,15478,10421,96670,118740
2025-05-30 16:17:01.522,97283,15498,10422,96681,118770
2025-05-30 16:17:01.534,97295,15517,10437,96708,118794
2025-05-30 16:17:01.541,97299,15526,10444,96702,118802
2025-05-30 16:17:01.559,97305,15531,10459,96682,118780
2025-05-30 16:17:01.562,97286,15529,10450,96683,118769
2025-05-30 16:17:01.574,97283,15520,10458,96677,118766
2025-05-30 16:17:01.581,97256,15486,10440,96653,118727
2025-05-30 16:17:01.594,97226,15440,10412,96658,118725
2025-05-30 16:17:01.601,97201,15406,10364,96644,118687
2025-05-30 16:17:01.622,97167,15347,10323,96628,118657
2025-05-30 16:17:01.624,97131,15295,10276,96608,118613
2025-05-30 16:17:01.634,97109,15240,10233,96603,118597
2025-05-30 16:17:01.642,97093,15180,10177,96586,118594
2025-05-30 16:17:01.654,97072,15132,10120,96597,118558
2025-05-30 16:17:01.662,97050,15077,10100,96595,118530
2025-05-30 16:17:01.685,97032,15047,10059,96580,118510
2025-05-30 16:17:01.687,97006,14999,10032,96565,118484
2025-05-30 16:17:01.694,96998,14966,9992,96568,118468
2025-05-30 16:17:01.701,96977,14921,9981,96536,118432
2025-05-30 16:17:01.714,96981,14905,9961,96530,118428
2025-05-30 16:17:01.721,96952,14875,9941,96516,118415
2025-05-30 16:17:01.734,96939,14850,9939,96521,118403
2025-05-30 16:17:01.748,96921,14839,9920,96530,118393
2025-05-30 16:17:01.753,96905,14820,9905,96497,118327
2025-05-30 16:17:01.762,96880,14804,9923,96488,118338
2025-05-30 16:17:01.774,96878,14782,9900,96474,118302
2025-05-30 16:17:01.786,96857,14770,9889,96469,118294
2025-05-30 16:17:01.793,96853,14762,9890,96454,118293
2025-05-30 16:17:01.811,96845,14757,9888,96451,118277
2025-05-30 16:17:01.814,96835,14754,9889,96441,118283
2025-05-30 16:17:01.826,96836,14755,9892,96451,118283
2025-05-30 16:17:01.834,96840,14755,9893,96456,118283
2025-05-30 16:17:01.846,96834,14747,9904,96437,118290
2025-05-30 16:17:01.853,96836,14759,9899,96457,118291
2025-05-30 16:17:01.874,96831,14756,9907,96445,118284
2025-05-30 16:17:01.876,96831,14766,9919,96458,118294
2025-05-30 16:17:01.886,96834,14753,9927,96459,118305
2025-05-30 16:17:01.894,96820,14763,9923,96441,118283
2025-05-30 16:17:01.906,96815,14753,9941,96449,118270
2025-05-30 16:17:01.914,96827,14749,9911,96453,118282
2025-05-30 16:17:01.938,96806,14742,9926,96449,118294
2025-05-30 16:17:01.939,96805,14743,9921,96451,118268
2025-05-30 16:17:01.946,96801,14751,9925,96447,118256
2025-05-30 16:17:01.954,96795,14730,9916,96450,118265
2025-05-30 16:17:01.966,96790,14731,9913,96444,118271
2025-05-30 16:17:01.973,96801,14729,9917,96443,118272
2025-05-30 16:17:01.986,96797,14734,9907,96447,118269
2025-05-30 16:17:02.001,96781,14734,9912,96433,118279
2025-05-30 16:17:02.005,96786,14728,9928,96438,118274
2025-05-30 16:17:02.014,96796,14741,9912,96441,118256
2025-05-30 16:17:02.025,96778,14731,9925,96440,118265
2025-05-30 16:17:02.033,96784,14752,9918,96437,118277
2025-05-30 16:17:02.046,96765,14743,9935,96438,118265
2025-05-30 16:17:02.065,96785,14753,9927,96440,118261
2025-05-30 16:17:02.066,96789,14774,9947,96428,118285
2025-05-30 16:17:02.073,96780,14786,9953,96441,118268
2025-05-30 16:17:02.086,96786,14785,9968,96435,118269
2025-05-30 16:17:02.094,96789,14805,9972,96432,118290
2025-05-30 16:17:02.106,96797,14805,9987,96439,118281
2025-05-30 16:17:02.113,96792,14814,9979,96440,118289
2025-05-30 16:17:02.128,96784,14815,10004,96448,118288
2025-05-30 16:17:02.134,96800,14828,10006,96451,118298
2025-05-30 16:17:02.146,96800,14852,10019,96457,118309
2025-05-30 16:17:02.153,96799,14865,10024,96441,118325
2025-05-30 16:17:02.165,96810,14870,10036,96449,118320
2025-05-30 16:17:02.190,96819,14896,10042,96449,118328
2025-05-30 16:17:02.191,96835,14896,10056,96458,118337
2025-05-30 16:17:02.198,96829,14912,10057,96454,118337
2025-05-30 16:17:02.206,96835,14934,10075,96453,118360
2025-05-30 16:17:02.218,96855,14945,10067,96459,118349
2025-05-30 16:17:02.226,96858,14954,10082,96466,118377
2025-05-30 16:17:02.237,96866,14973,10087,96461,118376
2025-05-30 16:17:02.253,96876,14978,10106,96476,118392
2025-05-30 16:17:02.258,96872,14996,10105,96480,118366
2025-05-30 16:17:02.266,96882,15000,10124,96493,118395
2025-05-30 16:17:02.278,96867,15005,10120,96487,118403
2025-05-30 16:17:02.286,96898,15024,10132,96495,118421
2025-05-30 16:17:02.297,96911,15030,10143,96495,118422
2025-05-30 16:17:02.316,96903,15054,10148,96509,118437
2025-05-30 16:17:02.318,96923,15057,10153,96524,118445
2025-05-30 16:17:02.325,96933,15075,10163,96517,118459
2025-05-30 16:17:02.338,96926,15092,10170,96520,118444
2025-05-30 16:17:02.346,96941,15104,10169,96531,118469
2025-05-30 16:17:02.358,96971,15114,10189,96525,118488
2025-05-30 16:17:02.380,96969,15128,10199,96535,118500
2025-05-30 16:17:02.381,96971,15142,10212,96546,118509
2025-05-30 16:17:02.386,96979,15149,10212,96548,118513
2025-05-30 16:17:02.397,96999,15171,10226,96563,118529
2025-05-30 16:17:02.405,97006,15184,10238,96568,118531
2025-05-30 16:17:02.418,97030,15195,10235,96563,118570
2025-05-30 16:17:02.425,97025,15212,10246,96576,118567
2025-05-30 16:17:02.442,97033,15232,10252,96584,118575
2025-05-30 16:17:02.446,97050,15236,10260,96577,118594
2025-05-30 16:17:02.458,97050,15236,10260,96577,118594
2025-05-30 16:17:02.470,97060,15254,10271,96600,118601
2025-05-30 16:17:02.478,97077,15263,10281,96613,118608
2025-05-30 16:17:02.490,97079,15287,10291,96611,118633
2025-05-30 16:17:02.504,97079,15287,10291,96611,118633
2025-05-30 16:17:02.505,97079,15287,10291,96611,118633
2025-05-30 16:17:02.506,97112,15328,10320,96630,118666
2025-05-30 16:17:02.509,97134,15338,10327,96651,118702
2025-05-30 16:17:02.518,97133,15344,10329,96652,118700
2025-05-30 16:17:02.530,97143,15368,10343,96646,118706
2025-05-30 16:17:02.537,97156,15381,10356,96654,118744
2025-05-30 16:17:02.550,97175,15397,10370,96655,118719
2025-05-30 16:17:02.569,97195,15413,10374,96676,118753
2025-05-30 16:17:02.570,97212,15424,10386,96674,118749
2025-05-30 16:17:02.578,97206,15439,10386,96687,118772
2025-05-30 16:17:02.589,97233,15461,10394,96704,118786
2025-05-30 16:17:02.597,97244,15473,10399,96705,118790
2025-05-30 16:17:02.610,97259,15480,10418,96705,118792
2025-05-30 16:17:02.617,97253,15504,10420,96706,118822
2025-05-30 16:17:02.632,97268,15521,10437,96721,118823
2025-05-30 16:17:02.638,97266,15526,10434,96722,118836
2025-05-30 16:17:02.649,97265,15528,10447,96734,118824
2025-05-30 16:17:02.657,97250,15519,10435,96719,118824
2025-05-30 16:17:02.669,97223,15494,10411,96712,118799
2025-05-30 16:17:02.678,97204,15461,10390,96685,118780
2025-05-30 16:17:02.696,97194,15410,10350,96666,118734
2025-05-30 16:17:02.698,97146,15363,10324,96647,118705
2025-05-30 16:17:02.710,97118,15312,10273,96643,118673
2025-05-30 16:17:02.718,97100,15257,10223,96621,118652
2025-05-30 16:17:02.730,97084,15211,10176,96611,118629
2025-05-30 16:17:02.738,97059,15170,10131,96611,118602
2025-05-30 16:17:02.759,97047,15118,10097,96600,118566
2025-05-30 16:17:02.762,97028,15076,10063,96584,118553
2025-05-30 16:17:02.770,97008,15050,10042,96584,118537
2025-05-30 16:17:02.781,97008,15025,10003,96575,118512
2025-05-30 16:17:02.789,97002,14985,9986,96571,118507
2025-05-30 16:17:02.802,96983,14964,9977,96568,118486
2025-05-30 16:17:02.823,96974,14939,9942,96547,118475
2025-05-30 16:17:02.824,96958,14934,9943,96541,118442
2025-05-30 16:17:02.830,96940,14920,9928,96529,118427
2025-05-30 16:17:02.842,96919,14905,9937,96517,118407
2025-05-30 16:17:02.850,96912,14885,9926,96502,118389
2025-05-30 16:17:02.862,96882,14893,9921,96484,118376
2025-05-30 16:17:02.870,96904,14872,9930,96474,118373
2025-05-30 16:17:02.887,96869,14872,9926,96477,118350
2025-05-30 16:17:02.890,96884,14872,9930,96475,118360
2025-05-30 16:17:02.901,96884,14872,9921,96484,118358
2025-05-30 16:17:02.910,96902,14873,9938,96472,118372
2025-05-30 16:17:02.922,96891,14884,9943,96500,118382
2025-05-30 16:17:02.929,96889,14886,9953,96480,118372
2025-05-30 16:17:02.950,96901,14893,9951,96490,118397
2025-05-30 16:17:02.951,96886,14887,9960,96509,118380
2025-05-30 16:17:02.961,96905,14897,9963,96493,118394
2025-05-30 16:17:02.969,96911,14889,9972,96503,118400
2025-05-30 16:17:02.982,96901,14890,9963,96502,118393
2025-05-30 16:17:02.990,96902,14906,9976,96501,118395
2025-05-30 16:17:03.012,96918,14888,9983,96498,118407
2025-05-30 16:17:03.014,96895,14900,9977,96506,118420
2025-05-30 16:17:03.022,96915,14878,9974,96503,118409
2025-05-30 16:17:03.029,96904,14886,9966,96502,118397
2025-05-30 16:17:03.041,96906,14893,9974,96516,118395
2025-05-30 16:17:03.050,96905,14881,9967,96504,118413
2025-05-30 16:17:03.061,96923,14881,9961,96508,118409
2025-05-30 16:17:03.077,96928,14874,9972,96513,118410
2025-05-30 16:17:03.082,96924,14888,9971,96528,118417
2025-05-30 16:17:03.089,96933,14886,9978,96511,118444
2025-05-30 16:17:03.101,96940,14889,9975,96517,118430
2025-05-30 16:17:03.110,96945,14901,9977,96523,118444
2025-05-30 16:17:03.121,96944,14905,9987,96522,118441
2025-05-30 16:17:03.140,96954,14914,10000,96535,118445
2025-05-30 16:17:03.142,96963,14924,10002,96543,118458
2025-05-30 16:17:03.154,96953,14927,10023,96531,118462
2025-05-30 16:17:03.161,96957,14952,10025,96529,118453
2025-05-30 16:17:03.173,96968,14953,10038,96523,118451
2025-05-30 16:17:03.182,96966,14961,10024,96540,118477
2025-05-30 16:17:03.204,96978,14973,10051,96544,118480
2025-05-30 16:17:03.205,96993,14986,10053,96551,118481
2025-05-30 16:17:03.213,96996,14996,10063,96556,118505
2025-05-30 16:17:03.222,97004,15015,10077,96533,118501
2025-05-30 16:17:03.234,97009,15027,10090,96543,118500
2025-05-30 16:17:03.241,97024,15043,10098,96551,118496
2025-05-30 16:17:03.267,97026,15052,10102,96565,118520
2025-05-30 16:17:03.268,97027,15064,10111,96559,118529
2025-05-30 16:17:03.273,97036,15093,10124,96565,118532
2025-05-30 16:17:03.282,97035,15096,10135,96568,118556
2025-05-30 16:17:03.293,97047,15101,10145,96555,118558
2025-05-30 16:17:03.302,97057,15124,10148,96574,118556
2025-05-30 16:17:03.313,97079,15145,10158,96578,118570
2025-05-30 16:17:03.331,97080,15140,10174,96588,118589
2025-05-30 16:17:03.333,97076,15175,10174,96591,118597
2025-05-30 16:17:03.342,97089,15185,10186,96590,118602
2025-05-30 16:17:03.353,97095,15196,10198,96597,118593
2025-05-30 16:17:03.361,97112,15197,10197,96587,118599
2025-05-30 16:17:03.373,97117,15210,10211,96604,118626
2025-05-30 16:17:03.394,97140,15234,10220,96602,118637
2025-05-30 16:17:03.396,97143,15247,10217,96621,118642
2025-05-30 16:17:03.401,97157,15259,10236,96628,118652
2025-05-30 16:17:03.414,97149,15284,10240,96623,118662
2025-05-30 16:17:03.422,97160,15282,10253,96624,118657
2025-05-30 16:17:03.434,97168,15303,10255,96621,118679
2025-05-30 16:17:03.458,97169,15316,10263,96626,118679
2025-05-30 16:17:03.459,97193,15333,10280,96613,118695
2025-05-30 16:17:03.466,97212,15341,10283,96649,118711
2025-05-30 16:17:03.473,97228,15351,10304,96659,118728
2025-05-30 16:17:03.485,97229,15375,10304,96665,118712
2025-05-30 16:17:03.493,97228,15386,10309,96660,118742
2025-05-30 16:17:03.505,97238,15394,10318,96658,118748
2025-05-30 16:17:03.522,97241,15411,10326,96669,118755
2025-05-30 16:17:03.525,97253,15422,10351,96675,118758
2025-05-30 16:17:03.533,97268,15433,10342,96673,118790
2025-05-30 16:17:03.545,97267,15464,10349,96686,118801
2025-05-30 16:17:03.554,97305,15475,10372,96673,118808
2025-05-30 16:17:03.565,97303,15494,10382,96686,118791
2025-05-30 16:17:03.584,97293,15507,10383,96690,118792
2025-05-30 16:17:03.585,97313,15511,10378,96692,118794
2025-05-30 16:17:03.594,97319,15525,10403,96702,118837
2025-05-30 16:17:03.605,97326,15535,10405,96702,118845
2025-05-30 16:17:03.613,97344,15571,10418,96730,118866
2025-05-30 16:17:03.626,97379,15574,10423,96726,118881
2025-05-30 16:17:03.648,97368,15586,10431,96741,118882
2025-05-30 16:17:03.649,97378,15603,10432,96726,118889
2025-05-30 16:17:03.653,97397,15615,10460,96741,118896
2025-05-30 16:17:03.666,97402,15627,10480,96749,118902
2025-05-30 16:17:03.673,97409,15652,10468,96754,118921
2025-05-30 16:17:03.685,97423,15653,10490,96780,118928
2025-05-30 16:17:03.712,97452,15685,10494,96787,118947
2025-05-30 16:17:03.713,97448,15693,10504,96771,118965
2025-05-30 16:17:03.718,97440,15706,10503,96758,118952
2025-05-30 16:17:03.725,97437,15700,10503,96753,118942
2025-05-30 16:17:03.738,97422,15682,10490,96749,118937
2025-05-30 16:17:03.746,97394,15649,10480,96718,118905
2025-05-30 16:17:03.758,97371,15599,10444,96721,118862
2025-05-30 16:17:03.774,97321,15558,10414,96709,118839
2025-05-30 16:17:03.777,97297,15512,10364,96687,118804
2025-05-30 16:17:03.786,97261,15460,10307,96694,118788
2025-05-30 16:17:03.797,97244,15416,10274,96674,118761
2025-05-30 16:17:03.805,97222,15363,10229,96687,118763
2025-05-30 16:17:03.817,97186,15322,10194,96699,118737
2025-05-30 16:17:03.838,97130,15279,10165,96705,118734
2025-05-30 16:17:03.839,97060,15236,10140,96686,118686
2025-05-30 16:17:03.846,97001,15197,10108,96631,118631
2025-05-30 16:17:03.857,96956,15154,10081,96609,118598
2025-05-30 16:17:03.866,96904,15126,10067,96616,118565
2025-05-30 16:17:03.877,96845,15119,10056,96627,118593
2025-05-30 16:17:03.885,96763,15091,10058,96655,118597
2025-05-30 16:17:03.901,96668,15054,10062,96643,118571
2025-05-30 16:17:03.902,96668,15054,10062,96643,118571
2025-05-30 16:17:03.905,96415,14958,10030,96492,118392
2025-05-30 16:17:03.917,96267,14912,10005,96356,118223
2025-05-30 16:17:03.925,96144,14886,9969,96203,118036
2025-05-30 16:17:03.937,96062,14828,9946,96076,117904
2025-05-30 16:17:03.945,95966,14794,9920,95923,117770
2025-05-30 16:17:03.964,95886,14762,9902,95738,117568
2025-05-30 16:17:03.966,95853,14740,9873,95524,117358
2025-05-30 16:17:03.977,95873,14741,9862,95442,117272
2025-05-30 16:17:03.985,95962,14759,9861,95424,117295
2025-05-30 16:17:03.998,96000,14784,9877,95398,117280
2025-05-30 16:17:04.005,96000,14806,9892,95371,117246
2025-05-30 16:17:04.027,95949,14828,9907,95383,117264
2025-05-30 16:17:04.028,95878,14828,9923,95368,117274
2025-05-30 16:17:04.038,95806,14831,9918,95349,117214
2025-05-30 16:17:04.046,95812,14828,9921,95301,117188
2025-05-30 16:17:04.058,95804,14821,9928,95316,117194
2025-05-30 16:17:04.070,95812,14824,9922,95284,117175
2025-05-30 16:17:04.090,95824,14820,9927,95247,117142
2025-05-30 16:17:04.091,95847,14827,9936,95236,117122
2025-05-30 16:17:04.097,95883,14818,9934,95233,117127
2025-05-30 16:17:04.109,95919,14834,9951,95232,117142
2025-05-30 16:17:04.118,95905,14824,9934,95247,117161
2025-05-30 16:17:04.130,95921,14828,9947,95237,117171
2025-05-30 16:17:04.137,95886,14838,9933,95206,117148
2025-05-30 16:17:04.153,95863,14837,9944,95184,117125
2025-05-30 16:17:04.158,95872,14843,9945,95178,117119
2025-05-30 16:17:04.170,95848,14847,9947,95173,117087
2025-05-30 16:17:04.177,95827,14858,9940,95153,117074
2025-05-30 16:17:04.189,95814,14861,9956,95156,117099
2025-05-30 16:17:04.198,95774,14868,9960,95150,117087
2025-05-30 16:17:04.216,95749,14866,9970,95112,117058
2025-05-30 16:17:04.217,95707,14866,9956,95074,117000
2025-05-30 16:17:04.230,95713,14867,9953,95004,116945
2025-05-30 16:17:04.237,95696,14883,9958,94971,116914
2025-05-30 16:17:04.249,95682,14894,9968,94950,116902
2025-05-30 16:17:04.256,95658,14920,9970,94951,116908
2025-05-30 16:17:04.280,95625,14918,9969,94935,116909
2025-05-30 16:17:04.281,95633,14936,9974,94893,116879
2025-05-30 16:17:04.290,95677,14961,9981,94885,116881
2025-05-30 16:17:04.297,95727,14971,9989,94899,116921
2025-05-30 16:17:04.309,95776,15002,10003,94923,116968
2025-05-30 16:17:04.317,95722,15051,10056,94990,117030
2025-05-30 16:17:04.329,95648,15072,10062,95025,117089
2025-05-30 16:17:04.344,95541,15082,10077,95124,117231
2025-05-30 16:17:04.350,95317,15092,10082,95192,117268
2025-05-30 16:17:04.357,94993,15086,10105,95248,117347
2025-05-30 16:17:04.370,94699,15078,10088,95291,117389
2025-05-30 16:17:04.377,94328,15061,10081,95337,117422
2025-05-30 16:17:04.389,93921,15038,10076,95354,117414
2025-05-30 16:17:04.406,93464,15019,10051,95332,117422
2025-05-30 16:17:04.409,93004,14962,10029,95300,117383
2025-05-30 16:17:04.421,92591,14904,9995,95210,117285
2025-05-30 16:17:04.429,92201,14842,9950,95089,117131
2025-05-30 16:17:04.442,91928,14789,9900,95009,117025
2025-05-30 16:17:04.449,91784,14734,9857,94931,116911
2025-05-30 16:17:04.469,91787,14642,9828,94831,116820
2025-05-30 16:17:04.470,92173,14555,9757,94628,116580
2025-05-30 16:17:04.481,92746,14483,9688,94414,116366
2025-05-30 16:17:04.489,93275,14442,9649,94272,116245
2025-05-30 16:17:04.500,93747,14422,9610,94274,116213
2025-05-30 16:17:04.509,94199,14467,9592,94362,116245
2025-05-30 16:17:04.533,94619,14517,9588,94543,116419
2025-05-30 16:17:04.534,94962,14577,9597,94722,116643
2025-05-30 16:17:04.542,95257,14634,9616,94905,116863
2025-05-30 16:17:04.549,95526,14679,9630,95070,117080
2025-05-30 16:17:04.562,95710,14701,9634,95170,117204
2025-05-30 16:17:04.570,95953,14745,9615,95137,117176
2025-05-30 16:17:04.581,96175,14799,9597,95078,117136
2025-05-30 16:17:04.596,96395,14875,9616,95081,117146
2025-05-30 16:17:04.601,96518,14949,9637,95149,117260
2025-05-30 16:17:04.609,96616,15004,9674,95224,117317
2025-05-30 16:17:04.621,96634,15058,9688,95291,117406
2025-05-30 16:17:04.629,96636,15088,9703,95328,117421
2025-05-30 16:17:04.641,96629,15121,9715,95339,117449
2025-05-30 16:17:04.658,96608,15153,9716,95296,117376
2025-05-30 16:17:04.661,96631,15178,9709,95208,117243
2025-05-30 16:17:04.670,96675,15221,9699,95113,117145
2025-05-30 16:17:04.681,96685,15256,9687,95062,117076
2025-05-30 16:17:04.689,96729,15299,9668,94957,116939
2025-05-30 16:17:04.701,96801,15350,9665,94882,116853
2025-05-30 16:17:04.722,96807,15412,9683,94852,116839
2025-05-30 16:17:04.724,96840,15455,9691,94838,116858
2025-05-30 16:17:04.729,96875,15518,9692,94811,116844
2025-05-30 16:17:04.742,96913,15560,9697,94793,116847
2025-05-30 16:17:04.749,96976,15620,9698,94753,116825
2025-05-30 16:17:04.761,96998,15658,9710,94686,116781
2025-05-30 16:17:04.769,96995,15700,9701,94626,116718
2025-05-30 16:17:04.787,96984,15740,9716,94616,116672
2025-05-30 16:17:04.794,96974,15751,9725,94593,116646
2025-05-30 16:17:04.801,96947,15747,9702,94605,116627
2025-05-30 16:17:04.813,96952,15744,9703,94611,116626
2025-05-30 16:17:04.821,96949,15724,9674,94641,116636
2025-05-30 16:17:04.833,96959,15709,9651,94643,116643
2025-05-30 16:17:04.850,96995,15704,9626,94674,116627
2025-05-30 16:17:04.854,97051,15681,9599,94710,116664
2025-05-30 16:17:04.862,96939,15663,9589,94796,116736
2025-05-30 16:17:04.873,96771,15620,9520,94809,116697
2025-05-30 16:17:04.881,96764,15596,9459,94790,116628
2025-05-30 16:17:04.893,96800,15567,9432,94688,116546
2025-05-30 16:17:04.913,96805,15593,9385,94573,116489
2025-05-30 16:17:04.914,96794,15644,9390,94522,116477
2025-05-30 16:17:04.921,96704,15686,9397,94583,116492
2025-05-30 16:17:04.933,96554,15682,9419,94655,116493
2025-05-30 16:17:04.942,96452,15687,9439,94692,116495
2025-05-30 16:17:04.953,96398,15676,9429,94721,116482
2025-05-30 16:17:04.961,96351,15666,9409,94728,116497
2025-05-30 16:17:04.976,96328,15650,9386,94718,116470
2025-05-30 16:17:04.981,96318,15640,9362,94697,116457
2025-05-30 16:17:04.993,96284,15656,9361,94660,116424
2025-05-30 16:17:05.001,96252,15673,9330,94634,116386
2025-05-30 16:17:05.013,96227,15691,9340,94624,116371
2025-05-30 16:17:05.021,96205,15717,9349,94616,116381
2025-05-30 16:17:05.039,96198,15732,9362,94633,116355
2025-05-30 16:17:05.042,96209,15760,9369,94611,116384
2025-05-30 16:17:05.053,96221,15789,9386,94634,116397
2025-05-30 16:17:05.062,96209,15811,9406,94638,116399
2025-05-30 16:17:05.073,96194,15822,9399,94668,116431
2025-05-30 16:17:05.081,96154,15827,9399,94643,116412
2025-05-30 16:17:05.102,96142,15849,9402,94619,116392
2025-05-30 16:17:05.103,96125,15892,9413,94604,116384
2025-05-30 16:17:05.114,96114,15897,9427,94600,116387
2025-05-30 16:17:05.122,96115,15923,9447,94620,116403
2025-05-30 16:17:05.133,96135,15945,9457,94651,116417
2025-05-30 16:17:05.141,96124,15952,9479,94675,116487
2025-05-30 16:17:05.165,96153,15984,9487,94691,116479
2025-05-30 16:17:05.167,96157,16008,9491,94728,116510
2025-05-30 16:17:05.173,96121,16020,9510,94777,116584
2025-05-30 16:17:05.181,96107,16049,9520,94814,116615
2025-05-30 16:17:05.194,96047,16070,9534,94852,116656
2025-05-30 16:17:05.205,96004,16070,9537,94917,116706
2025-05-30 16:17:05.213,95977,16079,9548,94960,116752
2025-05-30 16:17:05.228,95970,16093,9565,95010,116781
2025-05-30 16:17:05.233,95962,16088,9569,95068,116843
2025-05-30 16:17:05.245,96012,16083,9570,95128,116884
2025-05-30 16:17:05.253,96118,16095,9562,95158,116956
2025-05-30 16:17:05.265,96177,16081,9556,95261,117026
2025-05-30 16:17:05.274,96264,16103,9557,95349,117105
2025-05-30 16:17:05.293,96328,16097,9564,95438,117196
2025-05-30 16:17:05.294,96386,16099,9552,95552,117317
2025-05-30 16:17:05.305,96429,16085,9556,95645,117426
2025-05-30 16:17:05.309,96429,16085,9556,95645,117426
2025-05-30 16:17:05.313,96468,16057,9529,95800,117597
2025-05-30 16:17:05.325,96453,16054,9499,95880,117705
2025-05-30 16:17:05.334,96403,16029,9483,95936,117747
2025-05-30 16:17:05.356,96339,16022,9446,95977,117797
2025-05-30 16:17:05.357,96227,15986,9428,96000,117805
2025-05-30 16:17:05.364,96208,15939,9384,95961,117772
2025-05-30 16:17:05.373,96183,15896,9333,95897,117724
2025-05-30 16:17:05.385,96148,15875,9292,95881,117692
2025-05-30 16:17:05.394,96104,15864,9272,95859,117681
2025-05-30 16:17:05.405,96069,15846,9262,95862,117710
2025-05-30 16:17:05.420,96015,15819,9264,95869,117722
2025-05-30 16:17:05.425,95985,15805,9240,95832,117717
2025-05-30 16:17:05.433,95956,15774,9218,95839,117696
2025-05-30 16:17:05.445,95836,15749,9198,95824,117686
2025-05-30 16:17:05.454,95802,15729,9175,95797,117668
2025-05-30 16:17:05.465,95756,15709,9169,95777,117656
2025-05-30 16:17:05.483,95738,15683,9158,95746,117611
2025-05-30 16:17:05.485,95733,15654,9147,95686,117548
2025-05-30 16:17:05.494,95725,15630,9130,95637,117474
2025-05-30 16:17:05.505,95735,15612,9124,95618,117448
2025-05-30 16:17:05.514,95711,15606,9121,95603,117433
2025-05-30 16:17:05.525,95693,15586,9126,95585,117462
2025-05-30 16:17:05.546,95697,15568,9105,95579,117454
2025-05-30 16:17:05.547,95701,15560,9096,95596,117465
2025-05-30 16:17:05.552,95697,15533,9092,95600,117458
2025-05-30 16:17:05.564,95710,15536,9094,95602,117475
2025-05-30 16:17:05.578,95706,15518,9085,95608,117478
2025-05-30 16:17:05.585,95737,15532,9081,95614,117518
2025-05-30 16:17:05.609,95765,15506,9091,95609,117518
2025-05-30 16:17:05.610,95777,15513,9076,95620,117519
2025-05-30 16:17:05.617,95791,15507,9079,95598,117516
2025-05-30 16:17:05.626,95814,15504,9081,95600,117521
2025-05-30 16:17:05.637,95826,15485,9068,95606,117521
2025-05-30 16:17:05.645,95861,15489,9072,95610,117515
2025-05-30 16:17:05.658,95887,15471,9058,95598,117524
2025-05-30 16:17:05.675,95905,15476,9061,95603,117542
2025-05-30 16:17:05.677,95926,15479,9059,95609,117523
2025-05-30 16:17:05.685,95949,15481,9068,95618,117563
2025-05-30 16:17:05.697,95972,15471,9072,95603,117564
2025-05-30 16:17:05.705,95968,15471,9067,95602,117569
2025-05-30 16:17:05.717,95935,15442,9067,95585,117531
2025-05-30 16:17:05.738,95919,15407,9050,95578,117525
2025-05-30 16:17:05.739,95855,15369,9018,95572,117480
2025-05-30 16:17:05.745,95821,15309,8995,95557,117444
2025-05-30 16:17:05.757,95753,15261,8945,95544,117419
2025-05-30 16:17:05.766,95693,15190,8897,95517,117378
2025-05-30 16:17:05.778,95613,15147,8858,95509,117347
2025-05-30 16:17:05.785,95559,15099,8801,95501,117322
2025-05-30 16:17:05.802,95497,15041,8769,95473,117302
2025-05-30 16:17:05.805,95469,15004,8732,95475,117273
2025-05-30 16:17:05.818,95431,14959,8705,95438,117217
2025-05-30 16:17:05.825,95387,14918,8659,95424,117182
2025-05-30 16:17:05.837,95339,14871,8633,95391,117188
2025-05-30 16:17:05.846,95296,14852,8597,95382,117138
2025-05-30 16:17:05.865,95239,14810,8577,95380,117132
2025-05-30 16:17:05.867,95170,14785,8553,95365,117100
2025-05-30 16:17:05.877,95073,14763,8534,95366,117116
2025-05-30 16:17:05.885,95012,14731,8502,95355,117081
2025-05-30 16:17:05.897,94975,14706,8501,95335,117084
2025-05-30 16:17:05.909,94954,14689,8477,95315,117042
2025-05-30 16:17:05.930,94918,14658,8469,95295,117047
2025-05-30 16:17:05.931,94877,14643,8458,95285,117020
2025-05-30 16:17:05.938,94809,14625,8438,95294,117007
2025-05-30 16:17:05.949,94764,14598,8418,95272,116982
2025-05-30 16:17:05.957,94718,14589,8424,95254,116980
2025-05-30 16:17:05.969,94684,14570,8409,95247,116967
2025-05-30 16:17:05.977,94656,14563,8407,95234,116965
2025-05-30 16:17:05.993,94641,14553,8407,95216,116973
2025-05-30 16:17:05.997,94601,14541,8395,95230,116972
2025-05-30 16:17:06.009,94594,14541,8408,95231,116970
2025-05-30 16:17:06.017,94589,14527,8394,95236,116978
2025-05-30 16:17:06.029,94588,14521,8395,95235,116970
2025-05-30 16:17:06.037,94597,14496,8384,95234,116958
2025-05-30 16:17:06.056,94627,14490,8388,95226,116952
2025-05-30 16:17:06.057,94610,14468,8382,95205,116920
2025-05-30 16:17:06.070,94612,14459,8371,95192,116907
2025-05-30 16:17:06.077,94615,14440,8373,95182,116913
2025-05-30 16:17:06.089,94609,14426,8357,95204,116891
2025-05-30 16:17:06.097,94614,14414,8355,95174,116888
2025-05-30 16:17:06.119,94616,14398,8345,95153,116896
2025-05-30 16:17:06.121,94622,14402,8342,95164,116865
2025-05-30 16:17:06.129,94639,14393,8322,95156,116861
2025-05-30 16:17:06.137,94618,14393,8331,95143,116847
2025-05-30 16:17:06.149,94631,14384,8329,95141,116858
2025-05-30 16:17:06.157,94635,14383,8328,95155,116864
2025-05-30 16:17:06.182,94619,14389,8338,95155,116851
2025-05-30 16:17:06.184,94638,14394,8335,95152,116857
2025-05-30 16:17:06.189,94606,14397,8353,95162,116868
2025-05-30 16:17:06.196,94602,14376,8334,95147,116884
2025-05-30 16:17:06.209,94621,14387,8342,95145,116890
2025-05-30 16:17:06.217,94640,14385,8339,95144,116870
2025-05-30 16:17:06.228,94659,14384,8350,95150,116883
2025-05-30 16:17:06.245,94672,14393,8348,95135,116900
2025-05-30 16:17:06.249,94680,14406,8367,95155,116885
2025-05-30 16:17:06.258,94685,14410,8359,95168,116900
2025-05-30 16:17:06.268,94696,14424,8373,95157,116932
2025-05-30 16:17:06.277,94714,14435,8392,95165,116907
2025-05-30 16:17:06.289,94735,14431,8396,95160,116925
2025-05-30 16:17:06.308,94738,14446,8410,95154,116908
2025-05-30 16:17:06.309,94744,14439,8401,95160,116947
2025-05-30 16:17:06.320,94749,14439,8409,95170,116936
2025-05-30 16:17:06.329,94766,14446,8408,95151,116940
2025-05-30 16:17:06.341,94776,14436,8426,95152,116950
2025-05-30 16:17:06.348,94802,14455,8426,95199,116980
2025-05-30 16:17:06.371,94822,14458,8434,95198,116977
2025-05-30 16:17:06.373,94837,14474,8445,95196,116983
2025-05-30 16:17:06.381,94872,14476,8450,95194,117010
2025-05-30 16:17:06.389,94904,14492,8450,95203,117026
2025-05-30 16:17:06.401,94914,14494,8469,95211,117015
2025-05-30 16:17:06.409,94955,14496,8468,95213,117019
2025-05-30 16:17:06.420,94958,14503,8465,95198,117036
2025-05-30 16:17:06.436,94982,14521,8476,95203,117054
2025-05-30 16:17:06.441,94982,14524,8492,95198,117045
2025-05-30 16:17:06.450,95000,14522,8493,95204,117050
2025-05-30 16:17:06.462,95036,14528,8495,95206,117065
2025-05-30 16:17:06.469,95052,14545,8503,95211,117080
2025-05-30 16:17:06.481,95047,14552,8507,95209,117083
2025-05-30 16:17:06.499,95074,14554,8519,95232,117087
2025-05-30 16:17:06.501,95088,14559,8523,95224,117094
2025-05-30 16:17:06.509,95107,14579,8531,95236,117110
2025-05-30 16:17:06.520,95122,14593,8537,95247,117104
2025-05-30 16:17:06.530,95143,14593,8552,95252,117127
2025-05-30 16:17:06.541,95170,14602,8551,95241,117160
2025-05-30 16:17:06.562,95189,14624,8559,95257,117156
2025-05-30 16:17:06.564,95208,14632,8563,95264,117169
2025-05-30 16:17:06.569,95221,14628,8566,95241,117185
2025-05-30 16:17:06.581,95240,14628,8581,95259,117188
2025-05-30 16:17:06.589,95270,14639,8591,95261,117196
2025-05-30 16:17:06.601,95294,14652,8589,95261,117186
2025-05-30 16:17:06.609,95325,14646,8594,95257,117187
2025-05-30 16:17:06.626,95354,14662,8598,95267,117211
2025-05-30 16:17:06.629,95382,14670,8611,95255,117177
2025-05-30 16:17:06.641,95401,14647,8609,95237,117197
2025-05-30 16:17:06.653,95410,14647,8597,95243,117157
2025-05-30 16:17:06.661,95390,14617,8595,95212,117149
2025-05-30 16:17:06.673,95375,14589,8575,95196,117088
2025-05-30 16:17:06.690,95355,14557,8558,95194,117064
2025-05-30 16:17:06.693,95329,14517,8527,95184,117011
2025-05-30 16:17:06.700,95279,14473,8496,95176,117005
2025-05-30 16:17:06.712,95239,14439,8468,95167,116954
2025-05-30 16:17:06.721,95195,14403,8424,95132,116951
2025-05-30 16:17:06.733,95158,14368,8407,95109,116924
2025-05-30 16:17:06.753,95126,14348,8388,95097,116884
2025-05-30 16:17:06.755,95090,14308,8354,95093,116886
2025-05-30 16:17:06.762,95064,14306,8345,95091,116856
2025-05-30 16:17:06.772,95022,14282,8330,95085,116843
2025-05-30 16:17:06.781,94984,14265,8322,95089,116844
2025-05-30 16:17:06.793,94961,14262,8307,95065,116832
2025-05-30 16:17:06.801,94933,14249,8306,95061,116813
2025-05-30 16:17:06.817,94925,14231,8292,95046,116783
2025-05-30 16:17:06.821,94905,14226,8282,95035,116786
2025-05-30 16:17:06.832,94909,14236,8282,95027,116797
2025-05-30 16:17:06.841,94890,14215,8278,95048,116774
2025-05-30 16:17:06.853,94877,14211,8274,95021,116769
2025-05-30 16:17:06.861,94850,14212,8276,95029,116770
2025-05-30 16:17:06.879,94840,14201,8276,95021,116788
2025-05-30 16:17:06.881,94837,14202,8279,95000,116784
2025-05-30 16:17:06.894,94835,14213,8270,95023,116784
2025-05-30 16:17:06.901,94828,14213,8280,95035,116809
2025-05-30 16:17:06.914,94848,14221,8291,95035,116794
2025-05-30 16:17:06.917,94848,14221,8291,95035,116794
2025-05-30 16:17:06.921,94855,14228,8298,95024,116780
2025-05-30 16:17:06.943,94857,14216,8288,95026,116806
2025-05-30 16:17:06.944,94870,14213,8310,95023,116804
2025-05-30 16:17:06.953,94895,14225,8300,95002,116803
2025-05-30 16:17:06.961,94909,14224,8307,95032,116784
2025-05-30 16:17:06.973,94933,14225,8310,94998,116769
2025-05-30 16:17:06.981,94948,14218,8311,95002,116795
2025-05-30 16:17:07.006,94962,14227,8311,94981,116772
2025-05-30 16:17:07.007,94956,14220,8308,94984,116762
2025-05-30 16:17:07.014,94962,14226,8310,94976,116760
2025-05-30 16:17:07.021,94946,14227,8303,94985,116774
2025-05-30 16:17:07.034,94962,14224,8319,94999,116770
2025-05-30 16:17:07.045,94932,14237,8317,95013,116797
2025-05-30 16:17:07.052,94958,14226,8317,95022,116795
2025-05-30 16:17:07.069,94924,14238,8322,95035,116811
2025-05-30 16:17:07.073,94943,14245,8333,95032,116832
2025-05-30 16:17:07.085,94932,14244,8343,95046,116844
2025-05-30 16:17:07.092,94961,14244,8336,95061,116859
2025-05-30 16:17:07.105,94940,14261,8344,95037,116870
2025-05-30 16:17:07.113,94964,14247,8356,95039,116883
2025-05-30 16:17:07.133,94976,14263,8358,95068,116887
2025-05-30 16:17:07.134,94992,14280,8363,95077,116883
2025-05-30 16:17:07.145,94999,14279,8364,95057,116883
2025-05-30 16:17:07.153,95016,14287,8368,95071,116880
2025-05-30 16:17:07.165,95010,14292,8383,95044,116889
2025-05-30 16:17:07.173,95055,14294,8386,95059,116907
2025-05-30 16:17:07.197,95065,14324,8385,95062,116912
2025-05-30 16:17:07.198,95119,14334,8395,95055,116941
2025-05-30 16:17:07.205,95137,14346,8408,95073,116950
2025-05-30 16:17:07.212,95160,14371,8417,95083,116963
2025-05-30 16:17:07.225,95163,14373,8426,95082,116962
2025-05-30 16:17:07.232,95193,14380,8434,95080,116975
2025-05-30 16:17:07.245,95198,14386,8448,95074,116964
2025-05-30 16:17:07.260,95204,14390,8456,95091,117001
2025-05-30 16:17:07.265,95239,14407,8466,95092,117018
2025-05-30 16:17:07.273,95239,14424,8477,95106,117017
2025-05-30 16:17:07.284,95274,14418,8475,95102,117021
2025-05-30 16:17:07.293,95297,14436,8489,95110,117050
2025-05-30 16:17:07.305,95326,14430,8489,95123,117053
2025-05-30 16:17:07.325,95337,14468,8500,95120,117068
2025-05-30 16:17:07.326,95380,14495,8510,95126,117083
2025-05-30 16:17:07.333,95384,14483,8524,95119,117089
2025-05-30 16:17:07.345,95411,14495,8518,95137,117086
2025-05-30 16:17:07.353,95436,14500,8542,95130,117103
2025-05-30 16:17:07.365,95465,14505,8530,95126,117104
2025-05-30 16:17:07.372,95477,14522,8537,95127,117124
2025-05-30 16:17:07.389,95485,14527,8550,95140,117137
2025-05-30 16:17:07.392,95528,14546,8545,95140,117110
2025-05-30 16:17:07.405,95556,14555,8564,95141,117120
2025-05-30 16:17:07.413,95565,14560,8567,95153,117148
2025-05-30 16:17:07.425,95609,14565,8571,95156,117165
2025-05-30 16:17:07.437,95620,14570,8576,95171,117162
2025-05-30 16:17:07.453,95644,14582,8585,95155,117163
2025-05-30 16:17:07.457,95672,14606,8599,95146,117167
2025-05-30 16:17:07.465,95686,14596,8582,95144,117158
2025-05-30 16:17:07.477,95716,14610,8596,95141,117168
2025-05-30 16:17:07.485,95722,14613,8607,95124,117187
2025-05-30 16:17:07.497,95744,14614,8600,95128,117159
2025-05-30 16:17:07.515,95743,14599,8599,95126,117161
2025-05-30 16:17:07.517,95720,14563,8583,95119,117114
2025-05-30 16:17:07.525,95716,14537,8568,95097,117102
2025-05-30 16:17:07.537,95685,14503,8541,95047,117030
2025-05-30 16:17:07.545,95707,14469,8505,95005,116975
2025-05-30 16:17:07.557,95693,14440,8477,94977,116945
2025-05-30 16:17:07.582,95687,14434,8448,94960,116924
2025-05-30 16:17:07.583,95650,14400,8444,94958,116909
2025-05-30 16:17:07.585,95621,14395,8421,94965,116894
2025-05-30 16:17:07.597,95564,14389,8418,94975,116890
2025-05-30 16:17:07.604,95502,14382,8402,94984,116917
2025-05-30 16:17:07.617,95475,14384,8405,95006,116901
2025-05-30 16:17:07.624,95472,14403,8419,95012,116895
2025-05-30 16:17:07.649,95463,14419,8437,95029,116915
2025-05-30 16:17:07.651,95467,14441,8474,95081,116967
2025-05-30 16:17:07.657,95408,14477,8505,95139,116996
2025-05-30 16:17:07.665,95395,14472,8527,95145,117009
2025-05-30 16:17:07.677,95365,14483,8533,95124,116949
2025-05-30 16:17:07.684,95312,14512,8565,95091,116906
2025-05-30 16:17:07.710,95217,14484,8571,95029,116818
2025-05-30 16:17:07.711,95069,14486,8565,94873,116648
2025-05-30 16:17:07.717,94761,14484,8559,94725,116461
2025-05-30 16:17:07.725,94320,14458,8536,94542,116276
2025-05-30 16:17:07.736,93927,14457,8500,94243,115962
2025-05-30 16:17:07.745,93522,14488,8461,93958,115680
2025-05-30 16:17:07.756,93010,14489,8451,93727,115445
2025-05-30 16:17:07.774,92547,14521,8413,93456,115233
2025-05-30 16:17:07.777,92263,14562,8381,93206,114944
2025-05-30 16:17:07.784,92132,14590,8385,92987,114766
2025-05-30 16:17:07.797,92130,14633,8374,92781,114528
2025-05-30 16:17:07.809,92306,14713,8371,92626,114369
2025-05-30 16:17:07.816,92477,14772,8388,92582,114315
2025-05-30 16:17:07.838,92653,14842,8405,92564,114309
2025-05-30 16:17:07.839,92758,14912,8427,92558,114317
2025-05-30 16:17:07.848,92881,14977,8430,92535,114344
2025-05-30 16:17:07.856,92980,15032,8451,92541,114361
2025-05-30 16:17:07.869,93112,15092,8468,92520,114392
2025-05-30 16:17:07.876,93232,15145,8502,92515,114409
2025-05-30 16:17:07.901,93321,15217,8523,92520,114473
2025-05-30 16:17:07.902,93338,15272,8529,92516,114497
2025-05-30 16:17:07.909,93286,15321,8545,92485,114461
2025-05-30 16:17:07.917,93226,15377,8565,92436,114441
2025-05-30 16:17:07.929,93213,15449,8575,92370,114387
2025-05-30 16:17:07.936,93197,15512,8609,92327,114371
2025-05-30 16:17:07.949,93192,15550,8623,92303,114350
2025-05-30 16:17:07.964,93225,15633,8669,92295,114382
2025-05-30 16:17:07.968,93277,15692,8702,92299,114416
2025-05-30 16:17:07.977,93334,15767,8742,92323,114486
2025-05-30 16:17:07.989,93441,15842,8782,92345,114548
2025-05-30 16:17:07.997,93508,15913,8820,92408,114637
2025-05-30 16:17:08.009,93529,15986,8862,92455,114717
2025-05-30 16:17:08.027,93509,16056,8902,92450,114761
2025-05-30 16:17:08.029,93495,16110,8930,92473,114774
2025-05-30 16:17:08.037,93476,16186,8980,92503,114853
2025-05-30 16:17:08.048,93484,16226,9015,92515,114884
2025-05-30 16:17:08.056,93483,16304,9044,92552,114932
2025-05-30 16:17:08.069,93534,16347,9091,92573,114971
2025-05-30 16:17:08.090,93586,16424,9128,92612,115039
2025-05-30 16:17:08.092,93672,16470,9167,92677,115143
2025-05-30 16:17:08.097,93770,16539,9212,92734,115216
2025-05-30 16:17:08.109,93800,16571,9244,92807,115296
2025-05-30 16:17:08.117,93778,16640,9272,92810,115319
2025-05-30 16:17:08.129,93753,16647,9294,92852,115326
2025-05-30 16:17:08.136,93715,16700,9313,92832,115339
2025-05-30 16:17:08.154,93716,16720,9325,92813,115333
2025-05-30 16:17:08.157,93723,16776,9358,92818,115356
2025-05-30 16:17:08.169,93737,16803,9372,92833,115365
2025-05-30 16:17:08.181,93782,16841,9389,92853,115405
2025-05-30 16:17:08.189,93846,16909,9419,92894,115442
2025-05-30 16:17:08.201,93917,16924,9444,92937,115504
2025-05-30 16:17:08.217,94010,16975,9467,92991,115589
2025-05-30 16:17:08.221,94065,17015,9479,93037,115628
2025-05-30 16:17:08.229,94104,17075,9536,93063,115701
2025-05-30 16:17:08.241,94124,17119,9547,93092,115772
2025-05-30 16:17:08.248,94128,17160,9565,93106,115780
2025-05-30 16:17:08.261,94116,17191,9568,93107,115781
2025-05-30 16:17:08.281,94108,17247,9607,93073,115784
2025-05-30 16:17:08.282,94125,17287,9610,93075,115826
2025-05-30 16:17:08.290,94158,17346,9635,93085,115849
2025-05-30 16:17:08.301,94210,17376,9661,93116,115904
2025-05-30 16:17:08.308,94235,17476,9686,93127,115944
2025-05-30 16:17:08.321,94248,17518,9722,93167,116009
2025-05-30 16:17:08.324,94248,17518,9722,93167,116009
2025-05-30 16:17:08.328,94246,17592,9762,93218,116085
2025-05-30 16:17:08.344,94227,17623,9790,93191,116044
2025-05-30 16:17:08.349,94194,17612,9802,93170,115984
2025-05-30 16:17:08.360,94171,17621,9809,93126,115888
2025-05-30 16:17:08.369,94182,17614,9801,93087,115824
2025-05-30 16:17:08.381,94184,17613,9794,93053,115774
2025-05-30 16:17:08.388,94230,17604,9796,93042,115745
2025-05-30 16:17:08.407,94263,17603,9770,93026,115745
2025-05-30 16:17:08.409,94315,17605,9749,93051,115739
2025-05-30 16:17:08.420,94337,17610,9732,93069,115807
2025-05-30 16:17:08.428,94375,17621,9711,93079,115818
2025-05-30 16:17:08.440,94396,17616,9697,93093,115843
2025-05-30 16:17:08.453,94393,17628,9679,93114,115868
2025-05-30 16:17:08.472,94436,17629,9652,93117,115879
2025-05-30 16:17:08.473,94441,17657,9627,93133,115902
2025-05-30 16:17:08.481,94465,17654,9624,93132,115929
2025-05-30 16:17:08.488,94475,17686,9605,93118,115930
2025-05-30 16:17:08.501,94491,17690,9598,93147,115979
2025-05-30 16:17:08.508,94523,17705,9581,93138,115964
2025-05-30 16:17:08.520,94522,17732,9579,93150,115982
2025-05-30 16:17:08.536,94528,17755,9564,93139,116005
2025-05-30 16:17:08.541,94488,17771,9555,93149,116004
2025-05-30 16:17:08.548,94475,17789,9546,93151,115996
2025-05-30 16:17:08.561,94458,17809,9552,93169,116024
2025-05-30 16:17:08.572,94443,17836,9546,93193,116024
2025-05-30 16:17:08.581,94432,17867,9552,93212,116073
2025-05-30 16:17:08.599,94443,17892,9562,93226,116091
2025-05-30 16:17:08.601,94467,17937,9560,93261,116147
2025-05-30 16:17:08.612,94513,17950,9580,93310,116190
2025-05-30 16:17:08.621,94495,17984,9580,93344,116243
2025-05-30 16:17:08.633,94481,17988,9588,93361,116254
2025-05-30 16:17:08.640,94424,18014,9591,93374,116268
2025-05-30 16:17:08.662,94362,18016,9596,93391,116272
2025-05-30 16:17:08.664,94280,18010,9584,93388,116229
2025-05-30 16:17:08.672,94199,18010,9576,93356,116197
2025-05-30 16:17:08.680,94123,18025,9558,93340,116141
2025-05-30 16:17:08.692,94062,18014,9552,93320,116115
2025-05-30 16:17:08.701,94004,18027,9548,93304,116110
2025-05-30 16:17:08.726,93950,18014,9527,93297,116058
2025-05-30 16:17:08.727,93904,18028,9534,93265,116020
2025-05-30 16:17:08.732,93850,18014,9527,93254,116009
2025-05-30 16:17:08.741,93821,18036,9524,93259,115993
2025-05-30 16:17:08.753,93795,18047,9528,93251,116009
2025-05-30 16:17:08.760,93769,18063,9516,93273,116025
2025-05-30 16:17:08.772,93774,18090,9522,93277,116037
2025-05-30 16:17:08.790,93793,18104,9533,93282,116043
2025-05-30 16:17:08.793,93815,18119,9539,93300,116067
2025-05-30 16:17:08.801,93850,18162,9552,93299,116088
2025-05-30 16:17:08.813,93912,18192,9566,93333,116164
2025-05-30 16:17:08.821,93987,18217,9588,93390,116206
2025-05-30 16:17:08.833,94074,18253,9610,93431,116289
2025-05-30 16:17:08.853,94172,18308,9636,93458,116365
2025-05-30 16:17:08.854,94261,18320,9638,93493,116432
2025-05-30 16:17:08.860,94343,18346,9668,93533,116493
2025-05-30 16:17:08.872,94386,18372,9670,93568,116543
2025-05-30 16:17:08.881,94408,18399,9678,93548,116554
2025-05-30 16:17:08.892,94430,18420,9693,93539,116561
2025-05-30 16:17:08.900,94442,18451,9692,93520,116567
2025-05-30 16:17:08.915,94471,18484,9717,93511,116576
2025-05-30 16:17:08.925,94471,18532,9730,93537,116595
2025-05-30 16:17:08.932,94512,18567,9748,93541,116640
2025-05-30 16:17:08.945,94581,18628,9761,93546,116651
2025-05-30 16:17:08.952,94625,18655,9785,93571,116722
2025-05-30 16:17:08.964,94655,18691,9803,93609,116743
2025-05-30 16:17:08.979,94663,18717,9823,93614,116773
2025-05-30 16:17:08.984,94690,18760,9844,93628,116797
2025-05-30 16:17:08.992,94716,18794,9830,93626,116838
2025-05-30 16:17:09.005,94716,18815,9885,93659,116852
2025-05-30 16:17:09.012,94708,18851,9879,93679,116868
2025-05-30 16:17:09.024,94707,18875,9913,93671,116888
2025-05-30 16:17:09.043,94709,18895,9898,93683,116926
2025-05-30 16:17:09.045,94740,18941,9920,93662,116909
2025-05-30 16:17:09.052,94752,18958,9919,93691,116947
2025-05-30 16:17:09.065,94803,18992,9946,93713,116976
2025-05-30 16:17:09.073,94827,19033,9966,93723,117004
2025-05-30 16:17:09.085,94861,19042,9982,93751,117040
2025-05-30 16:17:09.106,94844,19093,9972,93744,117087
2025-05-30 16:17:09.108,94843,19109,10012,93758,117071
2025-05-30 16:17:09.112,94880,19140,10007,93763,117123
2025-05-30 16:17:09.124,94950,19183,10038,93766,117155
2025-05-30 16:17:09.134,95008,19216,10021,93801,117216
2025-05-30 16:17:09.144,95041,19244,10066,93809,117273
2025-05-30 16:17:09.152,95100,19293,10056,93851,117291
2025-05-30 16:17:09.170,95114,19312,10087,93833,117324
2025-05-30 16:17:09.173,95115,19342,10102,93851,117333
2025-05-30 16:17:09.184,95119,19358,10107,93850,117332
2025-05-30 16:17:09.192,95089,19392,10116,93861,117318
2025-05-30 16:17:09.204,95060,19400,10117,93876,117314
2025-05-30 16:17:09.216,95018,19411,10127,93864,117325
2025-05-30 16:17:09.235,94944,19415,10122,93862,117294
2025-05-30 16:17:09.237,94848,19394,10126,93848,117232
2025-05-30 16:17:09.244,94725,19389,10117,93829,117133
2025-05-30 16:17:09.256,94561,19330,10113,93796,117044
2025-05-30 16:17:09.265,94375,19274,10055,93745,116909
2025-05-30 16:17:09.276,94234,19223,10038,93684,116784
2025-05-30 16:17:09.284,94100,19142,9969,93628,116679
2025-05-30 16:17:09.299,93988,19086,9944,93593,116585
2025-05-30 16:17:09.305,93910,19026,9883,93564,116512
2025-05-30 16:17:09.316,93829,18980,9838,93527,116474
2025-05-30 16:17:09.324,93752,18926,9799,93492,116402
2025-05-30 16:17:09.337,93638,18888,9768,93453,116349
2025-05-30 16:17:09.344,93572,18838,9715,93392,116268
2025-05-30 16:17:09.362,93462,18799,9688,93343,116195
2025-05-30 16:17:09.364,93399,18765,9671,93275,116087
2025-05-30 16:17:09.377,93352,18733,9626,93198,116028
2025-05-30 16:17:09.384,93315,18693,9617,93162,115986
2025-05-30 16:17:09.396,93287,18672,9603,93140,115936
2025-05-30 16:17:09.405,93263,18657,9591,93100,115898
2025-05-30 16:17:09.427,93218,18620,9564,93048,115850
2025-05-30 16:17:09.428,93166,18600,9552,92965,115782
2025-05-30 16:17:09.437,93169,18570,9556,92912,115701
2025-05-30 16:17:09.445,93178,18565,9540,92870,115654
2025-05-30 16:17:09.457,93170,18539,9530,92821,115600
2025-05-30 16:17:09.464,93169,18523,9536,92792,115570
2025-05-30 16:17:09.476,93180,18514,9520,92769,115574
2025-05-30 16:17:09.492,93143,18503,9543,92694,115520
2025-05-30 16:17:09.496,93136,18489,9532,92629,115459
2025-05-30 16:17:09.505,93125,18493,9538,92580,115447
2025-05-30 16:17:09.517,93086,18493,9547,92524,115400
2025-05-30 16:17:09.529,93066,18488,9537,92497,115351
2025-05-30 16:17:09.536,93022,18466,9553,92470,115314
2025-05-30 16:17:09.555,92982,18458,9537,92423,115272
2025-05-30 16:17:09.556,92958,18456,9539,92354,115225
2025-05-30 16:17:09.568,92934,18448,9531,92276,115166
2025-05-30 16:17:09.577,92919,18448,9548,92249,115142
2025-05-30 16:17:09.588,92918,18445,9551,92225,115105
2025-05-30 16:17:09.596,92927,18446,9557,92216,115122
2025-05-30 16:17:09.617,92908,18440,9562,92244,115102
2025-05-30 16:17:09.619,92905,18443,9572,92225,115099
2025-05-30 16:17:09.629,92877,18406,9564,92229,115104
2025-05-30 16:17:09.636,92860,18407,9558,92193,115065
2025-05-30 16:17:09.648,92817,18397,9554,92147,115046
2025-05-30 16:17:09.657,92798,18387,9557,92114,115008
2025-05-30 16:17:09.682,92789,18382,9553,92089,114982
2025-05-30 16:17:09.684,92785,18373,9543,92080,114963
2025-05-30 16:17:09.688,92775,18372,9537,92088,114973
2025-05-30 16:17:09.697,92781,18359,9551,92080,114971
2025-05-30 16:17:09.709,92780,18359,9565,92068,114970
2025-05-30 16:17:09.716,92741,18357,9549,92028,114964
2025-05-30 16:17:09.729,92716,18368,9548,91991,114903
2025-05-30 16:17:09.746,92685,18345,9539,91916,114878
2025-05-30 16:17:09.749,92651,18346,9555,91897,114816
2025-05-30 16:17:09.756,92623,18346,9556,91851,114826
2025-05-30 16:17:09.768,92601,18343,9547,91875,114831
2025-05-30 16:17:09.776,92586,18366,9572,91881,114818
2025-05-30 16:17:09.788,92578,18364,9563,91859,114823
2025-05-30 16:17:09.810,92590,18359,9582,91847,114831
2025-05-30 16:17:09.811,92589,18372,9582,91844,114824
2025-05-30 16:17:09.816,92590,18392,9600,91841,114846
2025-05-30 16:17:09.828,92597,18403,9604,91854,114838
2025-05-30 16:17:09.837,92612,18410,9602,91855,114862
2025-05-30 16:17:09.848,92612,18417,9620,91875,114888
2025-05-30 16:17:09.857,92612,18432,9644,91898,114943
2025-05-30 16:17:09.873,92610,18441,9648,91915,114945
2025-05-30 16:17:09.876,92600,18435,9652,91888,114930
2025-05-30 16:17:09.888,92594,18442,9665,91851,114914
2025-05-30 16:17:09.900,92606,18438,9673,91841,114904
2025-05-30 16:17:09.909,92610,18465,9661,91847,114897
2025-05-30 16:17:09.920,92617,18474,9681,91865,114912
2025-05-30 16:17:09.938,92633,18477,9687,91870,114923
2025-05-30 16:17:09.939,92633,18477,9687,91870,114923
2025-05-30 16:17:09.940,92643,18492,9712,91850,114923
2025-05-30 16:17:09.948,92642,18500,9704,91844,114928
2025-05-30 16:17:09.960,92636,18511,9724,91846,114935
2025-05-30 16:17:09.968,92669,18518,9721,91849,114946
2025-05-30 16:17:09.980,92666,18538,9733,91820,114958
2025-05-30 16:17:10.001,92692,18549,9754,91820,114959
2025-05-30 16:17:10.002,92693,18567,9750,91846,115003
2025-05-30 16:17:10.008,92731,18571,9772,91862,115009
2025-05-30 16:17:10.020,92727,18582,9778,91868,115035
2025-05-30 16:17:10.029,92747,18577,9787,91888,115050
2025-05-30 16:17:10.040,92765,18593,9797,91903,115053
2025-05-30 16:17:10.049,92765,18609,9797,91900,115082
2025-05-30 16:17:10.064,92789,18620,9794,91894,115085
2025-05-30 16:17:10.069,92794,18630,9809,91882,115086
2025-05-30 16:17:10.080,92819,18641,9813,91884,115089
2025-05-30 16:17:10.088,92844,18642,9829,91882,115102
2025-05-30 16:17:10.101,92839,18662,9833,91886,115121
2025-05-30 16:17:10.108,92865,18654,9845,91875,115121
2025-05-30 16:17:10.127,92872,18671,9848,91881,115112
2025-05-30 16:17:10.129,92899,18678,9857,91895,115115
2025-05-30 16:17:10.141,92897,18685,9868,91885,115131
2025-05-30 16:17:10.148,92926,18692,9868,91887,115137
2025-05-30 16:17:10.160,92935,18709,9873,91842,115139
2025-05-30 16:17:10.168,92945,18723,9884,91854,115115
2025-05-30 16:17:10.192,92954,18734,9887,91850,115123
2025-05-30 16:17:10.193,92970,18745,9911,91855,115148
2025-05-30 16:17:10.200,92997,18768,9922,91875,115163
2025-05-30 16:17:10.208,93019,18773,9920,91882,115195
2025-05-30 16:17:10.220,93031,18803,9936,91897,115210
2025-05-30 16:17:10.228,93032,18805,9940,91901,115219
2025-05-30 16:17:10.239,93008,18800,9962,91885,115204
2025-05-30 16:17:10.256,93013,18804,9957,91861,115192
2025-05-30 16:17:10.261,92975,18804,9958,91822,115181
2025-05-30 16:17:10.268,92957,18801,9955,91798,115158
2025-05-30 16:17:10.280,92945,18804,9941,91794,115128
2025-05-30 16:17:10.293,92905,18786,9942,91756,115059
2025-05-30 16:17:10.300,92869,18752,9930,91717,115002
2025-05-30 16:17:10.319,92833,18709,9912,91665,114910
2025-05-30 16:17:10.320,92784,18660,9870,91638,114847
2025-05-30 16:17:10.332,92757,18612,9832,91600,114790
2025-05-30 16:17:10.340,92728,18581,9794,91583,114741
2025-05-30 16:17:10.352,92684,18546,9777,91542,114709
2025-05-30 16:17:10.359,92677,18520,9734,91525,114682
2025-05-30 16:17:10.383,92649,18496,9717,91517,114650
2025-05-30 16:17:10.384,92649,18481,9674,91466,114604
2025-05-30 16:17:10.392,92609,18468,9666,91464,114614
2025-05-30 16:17:10.400,92608,18434,9635,91458,114572
2025-05-30 16:17:10.412,92588,18442,9627,91438,114574
2025-05-30 16:17:10.421,92592,18436,9601,91432,114564
2025-05-30 16:17:10.432,92561,18413,9589,91420,114563
2025-05-30 16:17:10.448,92553,18413,9595,91419,114545
2025-05-30 16:17:10.452,92547,18409,9565,91418,114558
2025-05-30 16:17:10.460,92554,18422,9547,91418,114530
2025-05-30 16:17:10.471,92544,18434,9565,91424,114582
2025-05-30 16:17:10.480,92578,18449,9558,91440,114596
2025-05-30 16:17:10.492,92584,18446,9566,91452,114604
2025-05-30 16:17:10.510,92607,18470,9576,91465,114624
2025-05-30 16:17:10.512,92598,18463,9596,91502,114621
2025-05-30 16:17:10.520,92616,18473,9591,91497,114649
2025-05-30 16:17:10.531,92608,18481,9585,91513,114666
2025-05-30 16:17:10.541,92630,18490,9605,91505,114659
2025-05-30 16:17:10.552,92629,18482,9596,91494,114665
2025-05-30 16:17:10.573,92619,18493,9586,91455,114634
2025-05-30 16:17:10.574,92588,18471,9592,91399,114578
2025-05-30 16:17:10.581,92560,18484,9596,91339,114537
2025-05-30 16:17:10.592,92547,18471,9593,91309,114523
2025-05-30 16:17:10.600,92522,18492,9600,91291,114498
2025-05-30 16:17:10.613,92516,18490,9597,91296,114506
2025-05-30 16:17:10.620,92504,18524,9596,91308,114516
2025-05-30 16:17:10.637,92497,18517,9604,91321,114523
2025-05-30 16:17:10.644,92494,18513,9608,91329,114536
2025-05-30 16:17:10.652,92481,18510,9610,91304,114487
2025-05-30 16:17:10.664,92469,18517,9604,91257,114490
2025-05-30 16:17:10.672,92474,18512,9618,91267,114459
2025-05-30 16:17:10.684,92477,18523,9614,91226,114464
2025-05-30 16:17:10.702,92466,18535,9620,91241,114458
2025-05-30 16:17:10.704,92452,18534,9626,91221,114448
2025-05-30 16:17:10.711,92444,18546,9625,91183,114441
2025-05-30 16:17:10.724,92416,18544,9638,91169,114417
2025-05-30 16:17:10.732,92389,18569,9653,91109,114396
2025-05-30 16:17:10.744,92374,18574,9652,91116,114376
2025-05-30 16:17:10.765,92328,18586,9675,91035,114350
2025-05-30 16:17:10.766,92324,18598,9691,91005,114332
2025-05-30 16:17:10.772,92297,18620,9690,90983,114336
2025-05-30 16:17:10.783,92295,18651,9711,90997,114374
2025-05-30 16:17:10.792,92314,18680,9723,91026,114405
2025-05-30 16:17:10.804,92354,18695,9742,91080,114436
2025-05-30 16:17:10.812,92371,18715,9780,91135,114476
2025-05-30 16:17:10.828,92414,18745,9785,91218,114550
2025-05-30 16:17:10.832,92441,18766,9808,91254,114595
2025-05-30 16:17:10.844,92458,18783,9820,91329,114677
2025-05-30 16:17:10.851,92470,18810,9831,91339,114706
2025-05-30 16:17:10.864,92489,18845,9851,91359,114730
2025-05-30 16:17:10.872,92506,18873,9872,91364,114732
2025-05-30 16:17:10.893,92505,18897,9891,91419,114781
2025-05-30 16:17:10.894,92528,18931,9903,91400,114804
2025-05-30 16:17:10.904,92540,18954,9930,91423,114829
2025-05-30 16:17:10.911,92574,18991,9946,91448,114896
2025-05-30 16:17:10.924,92618,19024,9963,91483,114900
2025-05-30 16:17:10.936,92677,19042,9974,91523,114982
2025-05-30 16:17:10.958,92726,19064,10012,91589,115025
2025-05-30 16:17:10.960,92777,19095,10008,91638,115096
2025-05-30 16:17:10.964,92830,19119,10026,91666,115145
2025-05-30 16:17:10.973,92881,19134,10047,91701,115188
2025-05-30 16:17:10.983,92919,19153,10059,91763,115227
2025-05-30 16:17:10.995,92939,19153,10076,91783,115245
2025-05-30 16:17:11.004,92934,19164,10064,91758,115234
2025-05-30 16:17:11.021,92935,19178,10055,91749,115215
2025-05-30 16:17:11.024,92911,19181,10083,91725,115243
2025-05-30 16:17:11.036,92935,19204,10084,91757,115241
2025-05-30 16:17:11.044,92950,19208,10098,91756,115256
2025-05-30 16:17:11.056,92959,19231,10103,91786,115301
2025-05-30 16:17:11.064,92954,19230,10110,91787,115292
2025-05-30 16:17:11.084,92975,19255,10134,91841,115347
2025-05-30 16:17:11.086,92998,19275,10125,91853,115378
2025-05-30 16:17:11.096,93030,19291,10140,91924,115446
2025-05-30 16:17:11.104,93060,19303,10144,91960,115482
2025-05-30 16:17:11.116,93095,19332,10156,92025,115538
2025-05-30 16:17:11.124,93132,19350,10171,92081,115599
2025-05-30 16:17:11.147,93171,19356,10182,92146,115645
2025-05-30 16:17:11.149,93197,19376,10201,92226,115743
2025-05-30 16:17:11.155,93247,19379,10179,92317,115817
2025-05-30 16:17:11.164,93265,19407,10197,92469,115918
2025-05-30 16:17:11.176,93302,19410,10203,92586,116030
2025-05-30 16:17:11.184,93332,19429,10195,92735,116147
2025-05-30 16:17:11.196,93367,19436,10193,92869,116271
2025-05-30 16:17:11.211,93413,19454,10186,93052,116399
2025-05-30 16:17:11.216,93450,19448,10206,93184,116520
2025-05-30 16:17:11.223,93465,19447,10179,93289,116559
2025-05-30 16:17:11.235,93497,19438,10162,93361,116604
2025-05-30 16:17:11.244,93475,19419,10137,93407,116665
2025-05-30 16:17:11.255,93454,19372,10127,93447,116664
2025-05-30 16:17:11.274,93398,19320,10089,93458,116618
2025-05-30 16:17:11.276,93351,19261,10040,93462,116588
2025-05-30 16:17:11.288,93332,19204,10019,93453,116550
2025-05-30 16:17:11.296,93295,19125,9963,93472,116534
2025-05-30 16:17:11.308,93302,19071,9914,93496,116513
2025-05-30 16:17:11.316,93326,18999,9859,93548,116527
2025-05-30 16:17:11.338,93358,18923,9815,93571,116549
2025-05-30 16:17:11.340,93522,18872,9773,93653,116599
2025-05-30 16:17:11.341,93522,18872,9773,93653,116599
2025-05-30 16:17:11.348,93937,18802,9714,93899,116845
2025-05-30 16:17:11.356,94004,18792,9671,93986,116951
2025-05-30 16:17:11.368,94033,18764,9657,94021,117005
2025-05-30 16:17:11.375,94057,18751,9648,94051,117047
2025-05-30 16:17:11.402,94105,18740,9623,94092,117065
2025-05-30 16:17:11.403,94146,18727,9602,94116,117121
2025-05-30 16:17:11.408,94235,18708,9597,94170,117176
2025-05-30 16:17:11.416,94292,18712,9586,94207,117246
2025-05-30 16:17:11.428,94357,18703,9578,94290,117310
2025-05-30 16:17:11.436,94427,18696,9563,94315,117369
2025-05-30 16:17:11.447,94500,18688,9554,94383,117434
2025-05-30 16:17:11.466,94583,18677,9560,94426,117518
2025-05-30 16:17:11.468,94644,18690,9556,94506,117624
2025-05-30 16:17:11.476,94696,18693,9546,94572,117666
2025-05-30 16:17:11.487,94768,18695,9553,94621,117732
2025-05-30 16:17:11.495,94801,18702,9561,94653,117799
2025-05-30 16:17:11.508,94848,18687,9563,94708,117846
2025-05-30 16:17:11.529,94927,18689,9561,94741,117904
2025-05-30 16:17:11.530,94981,18675,9556,94798,117960
2025-05-30 16:17:11.536,95038,18660,9556,94809,117997
2025-05-30 16:17:11.547,95086,18653,9551,94816,118013
2025-05-30 16:17:11.556,95125,18651,9553,94832,118069
2025-05-30 16:17:11.568,95193,18639,9550,94827,118095
2025-05-30 16:17:11.576,95222,18643,9540,94836,118102
2025-05-30 16:17:11.594,95262,18620,9529,94829,118114
2025-05-30 16:17:11.596,95284,18619,9522,94845,118155
2025-05-30 16:17:11.607,95320,18600,9531,94851,118170
2025-05-30 16:17:11.616,95332,18592,9509,94879,118212
2025-05-30 16:17:11.628,95362,18571,9513,94898,118190
2025-05-30 16:17:11.640,95386,18554,9502,94893,118214
2025-05-30 16:17:11.659,95412,18536,9495,94894,118229
2025-05-30 16:17:11.660,95438,18520,9485,94877,118245
2025-05-30 16:17:11.668,95446,18516,9484,94897,118231
2025-05-30 16:17:11.680,95451,18507,9487,94891,118279
2025-05-30 16:17:11.688,95476,18496,9474,94867,118214
2025-05-30 16:17:11.699,95460,18489,9467,94851,118271
2025-05-30 16:17:11.707,95494,18481,9454,94859,118253
2025-05-30 16:17:11.723,95542,18471,9449,94843,118277
2025-05-30 16:17:11.727,95565,18476,9445,94832,118273
2025-05-30 16:17:11.740,95595,18478,9449,94845,118307
2025-05-30 16:17:11.747,95608,18478,9444,94835,118323
2025-05-30 16:17:11.760,95621,18485,9453,94840,118333
2025-05-30 16:17:11.767,95636,18484,9450,94832,118332
2025-05-30 16:17:11.791,95674,18494,9477,94868,118357
2025-05-30 16:17:11.792,95679,18495,9483,94874,118380
2025-05-30 16:17:11.801,95729,18484,9486,94906,118405
2025-05-30 16:17:11.808,95729,18493,9486,94926,118440
2025-05-30 16:17:11.820,95732,18477,9490,94947,118457
2025-05-30 16:17:11.828,95735,18471,9492,94993,118477
2025-05-30 16:17:11.839,95752,18461,9494,94998,118458
2025-05-30 16:17:11.856,95726,18444,9497,94991,118492
2025-05-30 16:17:11.860,95750,18421,9489,94976,118472
2025-05-30 16:17:11.867,95751,18417,9485,94979,118472
2025-05-30 16:17:11.880,95758,18405,9481,94976,118447
2025-05-30 16:17:11.888,95764,18402,9492,94951,118448
2025-05-30 16:17:11.899,95766,18388,9486,94965,118459
2025-05-30 16:17:11.918,95760,18395,9476,94950,118453
2025-05-30 16:17:11.920,95783,18386,9484,94953,118467
2025-05-30 16:17:11.928,95765,18373,9489,94961,118489
2025-05-30 16:17:11.939,95770,18362,9493,94981,118511
2025-05-30 16:17:11.947,95772,18349,9486,94951,118497
2025-05-30 16:17:11.960,95763,18350,9493,94965,118528
2025-05-30 16:17:11.967,95749,18362,9492,94962,118555
2025-05-30 16:17:11.983,95746,18351,9485,94963,118547
2025-05-30 16:17:11.992,95754,18351,9489,94962,118559
2025-05-30 16:17:11.999,95786,18351,9510,94957,118591
2025-05-30 16:17:12.012,95771,18364,9501,94943,118591
2025-05-30 16:17:12.019,95775,18370,9514,94949,118600
2025-05-30 16:17:12.032,95811,18363,9516,94939,118608
2025-05-30 16:17:12.047,95846,18388,9527,94934,118644
2025-05-30 16:17:12.052,95860,18407,9554,94962,118687
2025-05-30 16:17:12.060,95892,18426,9567,94995,118727
2025-05-30 16:17:12.072,95927,18436,9573,95059,118846
2025-05-30 16:17:12.080,95952,18443,9605,95082,118895
2025-05-30 16:17:12.091,95980,18461,9622,95110,118923
2025-05-30 16:17:12.111,95997,18473,9637,95110,118931
2025-05-30 16:17:12.113,96022,18482,9653,95120,118972
2025-05-30 16:17:12.120,96065,18497,9670,95144,119008
2025-05-30 16:17:12.131,96077,18508,9691,95180,119040
2025-05-30 16:17:12.140,96103,18497,9708,95164,119039
2025-05-30 16:17:12.152,96122,18501,9706,95150,119017
2025-05-30 16:17:12.160,96170,18506,9725,95129,118986
2025-05-30 16:17:12.177,96261,18519,9741,95149,119014
2025-05-30 16:17:12.180,96337,18530,9773,95171,119052
2025-05-30 16:17:12.192,96422,18536,9788,95217,119128
2025-05-30 16:17:12.199,96475,18544,9801,95273,119178
2025-05-30 16:17:12.212,96515,18517,9813,95289,119216
2025-05-30 16:17:12.220,96533,18484,9798,95279,119175
2025-05-30 16:17:12.246,96523,18414,9782,95246,119109
2025-05-30 16:17:12.247,96500,18335,9740,95192,119003
2025-05-30 16:17:12.252,96480,18259,9703,95116,118918
2025-05-30 16:17:12.259,96428,18149,9644,95028,118785
2025-05-30 16:17:12.271,96409,18047,9595,94984,118695
2025-05-30 16:17:12.280,96430,17954,9504,94912,118615
2025-05-30 16:17:12.292,96493,17864,9456,94843,118529
2025-05-30 16:17:12.311,96533,17781,9389,94785,118434
2025-05-30 16:17:12.313,96627,17695,9329,94730,118385
2025-05-30 16:17:12.319,96740,17611,9261,94692,118340
2025-05-30 16:17:12.331,96879,17540,9202,94632,118320
2025-05-30 16:17:12.344,97009,17454,9128,94606,118257
2025-05-30 16:17:12.351,97140,17385,9075,94558,118202
2025-05-30 16:17:12.360,97251,17316,9032,94494,118115
2025-05-30 16:17:12.377,97330,17263,8983,94454,118064
2025-05-30 16:17:12.384,97380,17194,8943,94406,117989
2025-05-30 16:17:12.392,97433,17146,8889,94331,117893
2025-05-30 16:17:12.403,97440,17102,8862,94277,117808
2025-05-30 16:17:12.412,97480,17054,8825,94211,117730
2025-05-30 16:17:12.424,97487,17025,8801,94168,117655
2025-05-30 16:17:12.440,97520,16996,8778,94153,117623
2025-05-30 16:17:12.444,97516,16973,8759,94126,117596
2025-05-30 16:17:12.452,97488,16949,8744,94128,117587
2025-05-30 16:17:12.463,97481,16936,8717,94104,117602
2025-05-30 16:17:12.472,97442,16915,8713,94096,117552
2025-05-30 16:17:12.484,97406,16896,8706,94054,117544
2025-05-30 16:17:12.505,97354,16861,8697,94031,117516
2025-05-30 16:17:12.507,97254,16832,8679,93991,117496
2025-05-30 16:17:12.511,97183,16799,8670,93973,117456
2025-05-30 16:17:12.524,97131,16756,8655,93937,117423
2025-05-30 16:17:12.531,97053,16701,8644,93901,117368
2025-05-30 16:17:12.543,96961,16647,8621,93858,117310
2025-05-30 16:17:12.552,96908,16595,8608,93770,117224
2025-05-30 16:17:12.570,96810,16550,8581,93711,117186
2025-05-30 16:17:12.571,96725,16494,8577,93663,117153
2025-05-30 16:17:12.584,96641,16445,8568,93612,117099
2025-05-30 16:17:12.591,96562,16380,8553,93555,117037
2025-05-30 16:17:12.603,96450,16353,8539,93524,117007
2025-05-30 16:17:12.612,96389,16296,8530,93506,116981
2025-05-30 16:17:12.635,96321,16232,8520,93459,116937
2025-05-30 16:17:12.636,96189,16188,8496,93431,116883
2025-05-30 16:17:12.644,96082,16148,8468,93351,116795
2025-05-30 16:17:12.651,95954,16100,8454,93295,116728
2025-05-30 16:17:12.663,95839,16058,8441,93213,116671
2025-05-30 16:17:12.672,95775,16018,8443,93177,116637
2025-05-30 16:17:12.683,95707,15997,8424,93128,116623
2025-05-30 16:17:12.699,95640,15951,8419,93143,116603
2025-05-30 16:17:12.704,95589,15932,8420,93127,116569
2025-05-30 16:17:12.711,95532,15887,8411,93119,116570
2025-05-30 16:17:12.724,95484,15863,8413,93135,116572
2025-05-30 16:17:12.731,95489,15820,8388,93122,116517
2025-05-30 16:17:12.744,95476,15795,8372,93091,116457
2025-05-30 16:17:12.762,95459,15756,8355,93075,116397
2025-05-30 16:17:12.764,95441,15748,8335,93044,116344
2025-05-30 16:17:12.772,95415,15704,8331,93017,116294
2025-05-30 16:17:12.783,95413,15698,8321,92951,116255
2025-05-30 16:17:12.795,95406,15665,8317,92912,116228
2025-05-30 16:17:12.803,95414,15638,8310,92868,116191
2025-05-30 16:17:12.828,95407,15614,8302,92843,116176
2025-05-30 16:17:12.829,95384,15597,8304,92799,116103
2025-05-30 16:17:12.836,95344,15575,8295,92787,116083
2025-05-30 16:17:12.843,95282,15547,8299,92749,116029
2025-05-30 16:17:12.855,95287,15527,8298,92709,116007
2025-05-30 16:17:12.864,95316,15512,8287,92668,115961
2025-05-30 16:17:12.876,95294,15484,8288,92631,115941
2025-05-30 16:17:12.892,95256,15470,8290,92585,115899
2025-05-30 16:17:12.895,95207,15443,8270,92548,115867
2025-05-30 16:17:12.904,95149,15419,8265,92501,115857
2025-05-30 16:17:12.915,95094,15400,8250,92469,115832
2025-05-30 16:17:12.924,95027,15377,8247,92440,115777
2025-05-30 16:17:12.935,94954,15352,8241,92431,115746
2025-05-30 16:17:12.958,94839,15333,8233,92407,115739
2025-05-30 16:17:12.959,94839,15333,8233,92407,115739
2025-05-30 16:17:12.961,94644,15288,8222,92379,115698
2025-05-30 16:17:12.963,94539,15270,8211,92404,115688
2025-05-30 16:17:12.975,94434,15244,8209,92389,115685
2025-05-30 16:17:12.984,94339,15223,8197,92392,115662
2025-05-30 16:17:12.996,94254,15197,8192,92401,115640
2025-05-30 16:17:13.003,94168,15189,8185,92403,115634
2025-05-30 16:17:13.023,94093,15176,8180,92417,115635
2025-05-30 16:17:13.024,94014,15175,8180,92456,115624
2025-05-30 16:17:13.036,93933,15151,8173,92471,115635
2025-05-30 16:17:13.043,93855,15155,8169,92507,115649
2025-05-30 16:17:13.056,93774,15147,8181,92542,115652
2025-05-30 16:17:13.064,93691,15144,8177,92584,115649
2025-05-30 16:17:13.088,93616,15130,8176,92614,115653
2025-05-30 16:17:13.089,93526,15123,8188,92624,115647
2025-05-30 16:17:13.096,93464,15093,8187,92661,115646
2025-05-30 16:17:13.103,93380,15088,8180,92673,115612
2025-05-30 16:17:13.115,93314,15035,8169,92665,115584
2025-05-30 16:17:13.124,93248,14990,8167,92682,115561
2025-05-30 16:17:13.135,93180,14949,8148,92682,115498
2025-05-30 16:17:13.151,93113,14899,8147,92672,115456
2025-05-30 16:17:13.155,93050,14850,8124,92684,115403
2025-05-30 16:17:13.168,92989,14808,8105,92685,115385
2025-05-30 16:17:13.175,92947,14756,8093,92699,115361
2025-05-30 16:17:13.188,92903,14721,8085,92689,115339
2025-05-30 16:17:13.195,92865,14688,8068,92686,115301
2025-05-30 16:17:13.216,92806,14654,8059,92697,115284
2025-05-30 16:17:13.217,92773,14616,8047,92709,115278
2025-05-30 16:17:13.227,92725,14593,8051,92697,115275
2025-05-30 16:17:13.236,92703,14581,8045,92686,115269
2025-05-30 16:17:13.248,92653,14558,8050,92693,115250
2025-05-30 16:17:13.255,92638,14536,8042,92730,115275
2025-05-30 16:17:13.279,92632,14519,8031,92714,115227
2025-05-30 16:17:13.281,92635,14502,8036,92720,115222
2025-05-30 16:17:13.287,92649,14487,8037,92699,115217
2025-05-30 16:17:13.295,92660,14491,8028,92702,115209
2025-05-30 16:17:13.307,92660,14469,8027,92691,115232
2025-05-30 16:17:13.316,92659,14469,8032,92696,115202
2025-05-30 16:17:13.327,92640,14461,8045,92689,115217
2025-05-30 16:17:13.342,92642,14465,8041,92700,115175
2025-05-30 16:17:13.348,92632,14452,8061,92693,115227
2025-05-30 16:17:13.355,92629,14436,8044,92678,115209
2025-05-30 16:17:13.367,92623,14429,8048,92700,115182
2025-05-30 16:17:13.376,92624,14427,8054,92677,115178
2025-05-30 16:17:13.388,92624,14416,8058,92666,115173
2025-05-30 16:17:13.406,92637,14398,8046,92660,115164
2025-05-30 16:17:13.408,92676,14403,8048,92661,115157
2025-05-30 16:17:13.416,92699,14393,8059,92651,115116
2025-05-30 16:17:13.427,92734,14381,8065,92664,115126
2025-05-30 16:17:13.436,92739,14378,8052,92656,115130
2025-05-30 16:17:13.447,92757,14370,8070,92666,115124
2025-05-30 16:17:13.470,92748,14365,8069,92670,115135
2025-05-30 16:17:13.472,92790,14349,8070,92683,115161
2025-05-30 16:17:13.476,92787,14350,8074,92700,115156
2025-05-30 16:17:13.488,92798,14348,8090,92706,115153
2025-05-30 16:17:13.495,92778,14341,8085,92723,115174
2025-05-30 16:17:13.507,92792,14330,8107,92712,115173
2025-05-30 16:17:13.516,92787,14327,8096,92740,115191
2025-05-30 16:17:13.537,92774,14317,8094,92740,115182
2025-05-30 16:17:13.539,92772,14299,8096,92748,115202
2025-05-30 16:17:13.548,92779,14305,8106,92752,115206
2025-05-30 16:17:13.559,92755,14300,8101,92762,115199
2025-05-30 16:17:13.568,92764,14294,8109,92769,115204
2025-05-30 16:17:13.579,92759,14292,8099,92760,115204
2025-05-30 16:17:13.602,92781,14282,8105,92766,115199
2025-05-30 16:17:13.604,92756,14291,8117,92778,115203
2025-05-30 16:17:13.608,92784,14278,8117,92792,115236
2025-05-30 16:17:13.619,92779,14294,8111,92797,115224
2025-05-30 16:17:13.628,92790,14284,8134,92793,115255
2025-05-30 16:17:13.639,92789,14280,8130,92822,115247
2025-05-30 16:17:13.647,92788,14277,8137,92841,115275
2025-05-30 16:17:13.667,92760,14288,8135,92870,115317
2025-05-30 16:17:13.669,92765,14275,8146,92871,115342
2025-05-30 16:17:13.679,92734,14277,8147,92888,115350
2025-05-30 16:17:13.688,92720,14279,8157,92891,115349
2025-05-30 16:17:13.700,92692,14273,8160,92889,115350
2025-05-30 16:17:13.707,92699,14277,8151,92868,115345
2025-05-30 16:17:13.737,92673,14280,8156,92886,115348
2025-05-30 16:17:13.738,92679,14284,8159,92890,115356
2025-05-30 16:17:13.740,92659,14268,8162,92900,115373
2025-05-30 16:17:13.748,92651,14275,8168,92901,115385
2025-05-30 16:17:13.759,92634,14281,8171,92915,115408
2025-05-30 16:17:13.767,92614,14272,8178,92926,115414
2025-05-30 16:17:13.779,92598,14289,8178,92930,115424
2025-05-30 16:17:13.803,92568,14293,8179,92949,115448
2025-05-30 16:17:13.804,92566,14278,8184,92946,115445
2025-05-30 16:17:13.808,92554,14283,8186,92938,115465
2025-05-30 16:17:13.819,92534,14276,8187,92952,115462
2025-05-30 16:17:13.827,92493,14273,8189,92959,115487
2025-05-30 16:17:13.840,92477,14272,8191,92944,115493
2025-05-30 16:17:13.847,92475,14252,8174,92947,115485
2025-05-30 16:17:13.867,92489,14258,8181,92912,115493
2025-05-30 16:17:13.868,92621,14298,8171,92913,115476
2025-05-30 16:17:13.880,92708,14361,8236,92964,115555
2025-05-30 16:17:13.887,92503,14327,8281,93120,115664
2025-05-30 16:17:13.899,92434,14321,8269,93057,115613
2025-05-30 16:17:13.907,92414,14305,8242,93057,115620
2025-05-30 16:17:13.930,92389,14286,8234,93032,115594
2025-05-30 16:17:13.932,92397,14277,8230,93023,115560
2025-05-30 16:17:13.939,92388,14250,8236,93030,115559
2025-05-30 16:17:13.952,92307,14195,8237,93034,115542
