Timestamp,PPG1,PPG2,PPG3,PPG4,PPG5
2025-05-22 19:29:08.507,127087,18657,10821,101643,124737
2025-05-22 19:29:08.722,127062,18645,10819,101621,124718
2025-05-22 19:29:09.039,127059,18634,10812,101586,124705
2025-05-22 19:29:09.041,127046,18630,10812,101562,124666
2025-05-22 19:29:09.043,127032,18622,10809,101551,124671
2025-05-22 19:29:09.044,127032,18622,10809,101551,124671
2025-05-22 19:29:09.045,127024,18609,10806,101517,124632
2025-05-22 19:29:09.047,127009,18608,10804,101511,124626
2025-05-22 19:29:09.049,127009,18608,10804,101511,124626
2025-05-22 19:29:09.051,127022,18608,10802,101496,124622
2025-05-22 19:29:09.052,127030,18602,10802,101496,124614
2025-05-22 19:29:09.053,127045,18607,10804,101506,124618
2025-05-22 19:29:09.055,127049,18610,10806,101491,124614
2025-05-22 19:29:09.057,127058,18610,10806,101504,124616
2025-05-22 19:29:09.058,127088,18613,10808,101500,124613
2025-05-22 19:29:09.060,127089,18614,10803,101501,124611
2025-05-22 19:29:09.062,127087,18611,10805,101510,124629
2025-05-22 19:29:09.063,127104,18613,10809,101503,124630
2025-05-22 19:29:09.064,127117,18613,10805,101506,124602
2025-05-22 19:29:09.065,127113,18604,10805,101512,124619
2025-05-22 19:29:09.067,127103,18611,10807,101506,124629
2025-05-22 19:29:09.068,127098,18601,10806,101524,124621
2025-05-22 19:29:09.070,127120,18593,10794,101496,124608
2025-05-22 19:29:09.071,127118,18588,10798,101507,124603
2025-05-22 19:29:09.072,127115,18601,10793,101495,124591
2025-05-22 19:29:09.073,127099,18591,10791,101496,124587
2025-05-22 19:29:09.074,127099,18591,10791,101496,124587
2025-05-22 19:29:09.074,127080,18581,10794,101482,124581
2025-05-22 19:29:09.075,127091,18580,10786,101479,124564
2025-05-22 19:29:09.076,127092,18577,10784,101462,124565
2025-05-22 19:29:09.077,127103,18580,10784,101456,124565
2025-05-22 19:29:09.077,127110,18579,10788,101460,124562
2025-05-22 19:29:09.078,127127,18578,10787,101471,124555
2025-05-22 19:29:09.079,127142,18584,10788,101473,124557
2025-05-22 19:29:09.080,127136,18584,10788,101476,124581
2025-05-22 19:29:09.081,127135,18586,10795,101476,124562
2025-05-22 19:29:09.082,127132,18584,10792,101462,124569
2025-05-22 19:29:09.083,127144,18589,10795,101481,124575
2025-05-22 19:29:09.083,127142,18596,10799,101483,124566
2025-05-22 19:29:09.084,127162,18603,10803,101482,124549
2025-05-22 19:29:09.099,127164,18601,10802,101473,124573
2025-05-22 19:29:09.100,127176,18607,10810,101487,124570
2025-05-22 19:29:09.101,127196,18616,10810,101473,124584
2025-05-22 19:29:09.102,127188,18619,10812,101501,124580
2025-05-22 19:29:09.103,127211,18620,10817,101498,124590
2025-05-22 19:29:09.103,127200,18623,10820,101498,124605
2025-05-22 19:29:09.104,127201,18633,10820,101504,124604
2025-05-22 19:29:09.105,127218,18639,10830,101522,124609
2025-05-22 19:29:09.106,127230,18638,10830,101500,124600
2025-05-22 19:29:09.107,127237,18644,10832,101515,124616
2025-05-22 19:29:09.107,127251,18650,10833,101521,124621
2025-05-22 19:29:09.108,127248,18660,10841,101523,124611
2025-05-22 19:29:09.109,127278,18659,10842,101524,124620
2025-05-22 19:29:09.109,127275,18666,10848,101527,124631
2025-05-22 19:29:09.110,127308,18672,10853,101557,124655
2025-05-22 19:29:09.111,127318,18677,10850,101575,124652
2025-05-22 19:29:09.112,127322,18681,10855,101561,124662
2025-05-22 19:29:09.112,127353,18690,10857,101575,124689
2025-05-22 19:29:09.113,127350,18695,10863,101591,124669
2025-05-22 19:29:09.114,127360,18704,10862,101595,124689
2025-05-22 19:29:09.114,127354,18707,10865,101603,124672
2025-05-22 19:29:09.115,127385,18711,10870,101611,124701
2025-05-22 19:29:09.116,127384,18716,10874,101621,124698
2025-05-22 19:29:09.117,127405,18718,10879,101633,124719
2025-05-22 19:29:09.118,127447,18730,10880,101649,124739
2025-05-22 19:29:09.119,127459,18736,10881,101663,124742
2025-05-22 19:29:09.120,127489,18747,10886,101684,124766
2025-05-22 19:29:09.120,127493,18749,10889,101675,124774
2025-05-22 19:29:09.122,127501,18757,10891,101700,124806
2025-05-22 19:29:09.123,127538,18763,10896,101711,124804
2025-05-22 19:29:09.124,127548,18770,10901,101717,124810
2025-05-22 19:29:09.124,127575,18776,10901,101747,124827
2025-05-22 19:29:09.125,127602,18783,10910,101753,124856
2025-05-22 19:29:09.126,127637,18787,10909,101788,124869
2025-05-22 19:29:09.134,127651,18792,10910,101808,124884
2025-05-22 19:29:09.143,127711,18799,10907,101836,124914
2025-05-22 19:29:09.162,127745,18802,10911,101867,124960
2025-05-22 19:29:09.164,127803,18799,10910,101909,124986
2025-05-22 19:29:09.174,127864,18804,10894,101966,125032
2025-05-22 19:29:09.182,127902,18802,10893,102016,125074
2025-05-22 19:29:09.195,127926,18788,10887,102058,125111
2025-05-22 19:29:09.202,127957,18782,10875,102086,125109
2025-05-22 19:29:09.227,127955,18775,10869,102090,125127
2025-05-22 19:29:09.228,127945,18753,10855,102102,125124
2025-05-22 19:29:09.235,127933,18744,10841,102104,125115
2025-05-22 19:29:09.243,127895,18726,10831,102081,125093
2025-05-22 19:29:09.255,127875,18706,10821,102078,125073
2025-05-22 19:29:09.263,127839,18685,10815,102054,125040
2025-05-22 19:29:09.274,127827,18671,10803,102029,124995
2025-05-22 19:29:09.291,127802,18659,10794,102008,124984
2025-05-22 19:29:09.294,127788,18640,10784,102011,124974
2025-05-22 19:29:09.303,127785,18639,10785,101984,124940
2025-05-22 19:29:09.314,127759,18624,10776,101975,124922
2025-05-22 19:29:09.323,127744,18617,10772,101954,124910
2025-05-22 19:29:09.334,127741,18608,10767,101938,124897
2025-05-22 19:29:09.355,127732,18599,10763,101919,124881
2025-05-22 19:29:09.356,127732,18591,10766,101911,124861
2025-05-22 19:29:09.367,127738,18592,10763,101913,124863
2025-05-22 19:29:09.374,127742,18591,10765,101906,124855
2025-05-22 19:29:09.387,127736,18590,10764,101894,124859
2025-05-22 19:29:09.394,127746,18593,10762,101900,124837
2025-05-22 19:29:09.418,127775,18596,10768,101910,124846
2025-05-22 19:29:09.419,127792,18595,10765,101925,124856
2025-05-22 19:29:09.426,127817,18599,10764,101926,124856
2025-05-22 19:29:09.434,127831,18597,10766,101928,124870
2025-05-22 19:29:09.446,127855,18608,10770,101952,124892
2025-05-22 19:29:09.454,127857,18606,10769,101964,124892
2025-05-22 19:29:09.467,127857,18609,10772,101984,124903
2025-05-22 19:29:09.488,127860,18611,10774,101979,124895
2025-05-22 19:29:09.490,127864,18609,10768,101983,124898
2025-05-22 19:29:09.494,127860,18611,10770,101988,124920
2025-05-22 19:29:09.506,127870,18608,10767,101990,124889
2025-05-22 19:29:09.515,127858,18612,10777,101991,124907
2025-05-22 19:29:09.526,127870,18609,10767,101997,124902
2025-05-22 19:29:09.535,127854,18602,10766,101994,124899
2025-05-22 19:29:09.557,127863,18599,10760,101986,124888
2025-05-22 19:29:09.575,127851,18601,10768,101976,124884
2025-05-22 19:29:09.576,127853,18601,10763,101978,124864
2025-05-22 19:29:09.577,127851,18603,10761,101986,124884
2025-05-22 19:29:09.587,127835,18595,10765,101979,124873
2025-05-22 19:29:09.599,127827,18596,10761,101980,124869
2025-05-22 19:29:09.606,127808,18599,10766,101963,124846
2025-05-22 19:29:09.623,127799,18607,10772,101955,124849
2025-05-22 19:29:09.626,127778,18606,10767,101951,124843
2025-05-22 19:29:09.639,127774,18604,10771,101941,124835
2025-05-22 19:29:09.647,127762,18611,10773,101936,124819
2025-05-22 19:29:09.658,127758,18609,10778,101916,124816
2025-05-22 19:29:09.663,127758,18609,10778,101916,124816
2025-05-22 19:29:09.667,127738,18621,10777,101921,124813
2025-05-22 19:29:09.731,127760,18616,10780,101915,124806
2025-05-22 19:29:09.733,127753,18621,10783,101916,124807
2025-05-22 19:29:09.735,127793,18626,10788,101920,124831
2025-05-22 19:29:09.736,127795,18630,10786,101921,124817
2025-05-22 19:29:09.737,127820,18639,10795,101941,124841
2025-05-22 19:29:09.739,127831,18643,10798,101961,124841
2025-05-22 19:29:09.740,127836,18648,10800,101963,124861
2025-05-22 19:29:09.746,127843,18652,10807,101973,124865
2025-05-22 19:29:09.758,127840,18662,10807,101971,124864
2025-05-22 19:29:09.767,127848,18667,10807,101970,124866
2025-05-22 19:29:09.778,127852,18672,10813,101977,124849
2025-05-22 19:29:10.133,127867,18676,10820,101992,124864
2025-05-22 19:29:10.134,127852,18680,10821,101990,124883
2025-05-22 19:29:10.135,127882,18692,10826,101997,124885
2025-05-22 19:29:10.136,127878,18691,10828,102002,124897
2025-05-22 19:29:10.138,127883,18702,10833,102010,124898
2025-05-22 19:29:10.139,127893,18701,10834,102011,124912
2025-05-22 19:29:10.139,127895,18712,10841,102009,124887
2025-05-22 19:29:10.140,127910,18712,10837,102019,124915
2025-05-22 19:29:10.141,127929,18722,10845,102035,124927
2025-05-22 19:29:10.141,127932,18733,10846,102028,124926
2025-05-22 19:29:10.142,127932,18732,10856,102047,124937
2025-05-22 19:29:10.143,127945,18739,10856,102066,124941
2025-05-22 19:29:10.144,127960,18741,10861,102073,124959
2025-05-22 19:29:10.145,127965,18752,10863,102073,124964
2025-05-22 19:29:10.145,127965,18757,10857,102069,124968
2025-05-22 19:29:10.146,127950,18765,10872,102080,124968
2025-05-22 19:29:10.147,127959,18771,10877,102079,124981
2025-05-22 19:29:10.148,127948,18777,10874,102081,124963
2025-05-22 19:29:10.148,127972,18775,10879,102074,124971
2025-05-22 19:29:10.149,127981,18787,10880,102092,124983
2025-05-22 19:29:10.150,127997,18787,10879,102099,124986
2025-05-22 19:29:10.151,128008,18794,10885,102104,124993
2025-05-22 19:29:10.151,128015,18795,10888,102114,125017
2025-05-22 19:29:10.152,128050,18809,10891,102123,125006
2025-05-22 19:29:10.153,128065,18811,10891,102139,125045
2025-05-22 19:29:10.154,128085,18815,10892,102160,125030
2025-05-22 19:29:10.155,128116,18815,10893,102171,125053
2025-05-22 19:29:10.156,128164,18813,10886,102209,125096
2025-05-22 19:29:10.157,128156,18815,10888,102231,125096
2025-05-22 19:29:10.158,128181,18803,10873,102260,125118
2025-05-22 19:29:10.159,128173,18794,10871,102269,125118
2025-05-22 19:29:10.160,128172,18782,10858,102279,125117
2025-05-22 19:29:10.161,128154,18771,10843,102277,125105
2025-05-22 19:29:10.162,128109,18757,10837,102265,125116
2025-05-22 19:29:10.164,128075,18737,10830,102234,125068
2025-05-22 19:29:10.164,128029,18719,10819,102225,125040
2025-05-22 19:29:10.165,128012,18703,10805,102186,125018
2025-05-22 19:29:10.167,127948,18689,10795,102156,124973
2025-05-22 19:29:10.170,127913,18677,10785,102120,124947
2025-05-22 19:29:10.219,127884,18660,10782,102096,124913
2025-05-22 19:29:10.221,127859,18655,10776,102085,124892
2025-05-22 19:29:10.222,127832,18639,10769,102035,124858
2025-05-22 19:29:10.223,127809,18625,10756,102040,124833
2025-05-22 19:29:10.223,127767,18625,10773,102020,124814
2025-05-22 19:29:10.230,127764,18608,10763,102007,124807
2025-05-22 19:29:10.242,127748,18608,10760,101973,124778
2025-05-22 19:29:10.250,127750,18605,10767,101960,124772
2025-05-22 19:29:10.262,127783,18614,10766,101967,124763
2025-05-22 19:29:10.281,127791,18608,10762,101967,124770
2025-05-22 19:29:10.283,127801,18614,10766,101968,124772
2025-05-22 19:29:10.291,127814,18615,10767,101973,124793
2025-05-22 19:29:10.303,127818,18622,10766,101991,124784
2025-05-22 19:29:10.310,127843,18622,10774,101981,124792
2025-05-22 19:29:10.322,127847,18623,10775,101988,124817
2025-05-22 19:29:10.345,127840,18623,10778,102002,124814
2025-05-22 19:29:10.347,127863,18629,10776,102012,124813
2025-05-22 19:29:10.351,127849,18627,10777,102008,124818
2025-05-22 19:29:10.362,127866,18631,10774,102014,124815
2025-05-22 19:29:10.370,127845,18628,10769,102014,124827
2025-05-22 19:29:10.382,127838,18627,10772,102000,124823
2025-05-22 19:29:10.391,127821,18622,10770,101997,124813
2025-05-22 19:29:10.411,127815,18616,10766,101992,124786
2025-05-22 19:29:10.412,127796,18614,10765,101988,124781
2025-05-22 19:29:10.422,127794,18610,10759,101970,124773
2025-05-22 19:29:10.434,127777,18606,10761,101968,124759
2025-05-22 19:29:10.442,127776,18605,10756,101966,124756
2025-05-22 19:29:10.454,127752,18599,10760,101950,124738
2025-05-22 19:29:10.475,127757,18599,10756,101935,124726
2025-05-22 19:29:10.476,127738,18595,10754,101925,124719
2025-05-22 19:29:10.483,127734,18591,10754,101913,124718
2025-05-22 19:29:10.494,127745,18593,10751,101908,124703
2025-05-22 19:29:10.503,127762,18588,10760,101914,124711
2025-05-22 19:29:10.514,127767,18599,10758,101932,124712
2025-05-22 19:29:10.522,127785,18605,10762,101930,124722
2025-05-22 19:29:10.538,127805,18613,10757,101951,124737
2025-05-22 19:29:10.542,127817,18606,10763,101958,124734
2025-05-22 19:29:10.554,127803,18617,10766,101974,124745
2025-05-22 19:29:10.563,127817,18624,10775,101957,124764
2025-05-22 19:29:10.575,127823,18629,10772,101967,124762
2025-05-22 19:29:10.582,127834,18631,10780,101980,124767
2025-05-22 19:29:10.603,127847,18641,10781,101980,124777
2025-05-22 19:29:10.604,127845,18648,10786,101981,124766
2025-05-22 19:29:10.615,127858,18653,10787,101986,124773
2025-05-22 19:29:10.622,127867,18648,10796,101997,124791
2025-05-22 19:29:10.634,127874,18657,10797,102006,124791
2025-05-22 19:29:10.643,127879,18666,10793,102013,124807
2025-05-22 19:29:10.667,127915,18680,10800,102013,124814
2025-05-22 19:29:10.669,127911,18682,10807,102029,124837
2025-05-22 19:29:10.670,127911,18682,10807,102029,124837
2025-05-22 19:29:10.674,127954,18693,10807,102053,124852
2025-05-22 19:29:10.683,127951,18693,10811,102059,124835
2025-05-22 19:29:10.694,127947,18702,10818,102071,124847
2025-05-22 19:29:10.702,127946,18709,10820,102074,124857
2025-05-22 19:29:10.714,127969,18713,10831,102054,124854
2025-05-22 19:29:10.732,127973,18722,10831,102074,124866
2025-05-22 19:29:10.735,128005,18730,10827,102096,124891
2025-05-22 19:29:10.746,128001,18733,10831,102110,124901
2025-05-22 19:29:10.754,128029,18743,10837,102116,124906
2025-05-22 19:29:10.766,128044,18740,10839,102124,124922
2025-05-22 19:29:10.774,128037,18760,10840,102142,124917
2025-05-22 19:29:10.796,128056,18761,10849,102162,124914
2025-05-22 19:29:10.797,128048,18765,10844,102151,124933
2025-05-22 19:29:10.807,128045,18775,10851,102160,124946
2025-05-22 19:29:10.814,128048,18773,10854,102160,124933
2025-05-22 19:29:10.826,128063,18786,10857,102158,124941
2025-05-22 19:29:10.835,128054,18781,10866,102155,124961
2025-05-22 19:29:10.860,128082,18791,10866,102170,124970
2025-05-22 19:29:10.861,128097,18797,10869,102198,124970
2025-05-22 19:29:10.867,128102,18806,10874,102197,124983
2025-05-22 19:29:10.874,128112,18815,10874,102203,124999
2025-05-22 19:29:10.886,128124,18817,10884,102223,124997
2025-05-22 19:29:10.894,128129,18826,10888,102230,125009
2025-05-22 19:29:10.906,128141,18839,10891,102238,125009
2025-05-22 19:29:10.924,128136,18838,10892,102237,125014
2025-05-22 19:29:10.926,128129,18833,10897,102238,125012
2025-05-22 19:29:10.935,128151,18847,10891,102245,125041
2025-05-22 19:29:10.946,128172,18848,10899,102244,125027
2025-05-22 19:29:10.955,128189,18852,10893,102255,125029
2025-05-22 19:29:10.966,128220,18844,10891,102275,125063
2025-05-22 19:29:10.989,128242,18847,10890,102297,125081
2025-05-22 19:29:10.990,128247,18842,10883,102326,125108
2025-05-22 19:29:10.998,128255,18838,10883,102324,125090
2025-05-22 19:29:11.006,128240,18830,10866,102331,125109
2025-05-22 19:29:11.018,128229,18807,10867,102328,125114
2025-05-22 19:29:11.027,128205,18802,10855,102339,125084
2025-05-22 19:29:11.038,128174,18780,10832,102300,125073
2025-05-22 19:29:11.054,128139,18760,10826,102294,125035
2025-05-22 19:29:11.058,128083,18750,10813,102274,124998
2025-05-22 19:29:11.066,128040,18727,10802,102232,124984
2025-05-22 19:29:11.078,127993,18709,10793,102200,124946
2025-05-22 19:29:11.086,127951,18694,10785,102171,124895
2025-05-22 19:29:11.099,127929,18677,10781,102151,124862
2025-05-22 19:29:11.119,127894,18660,10776,102119,124832
2025-05-22 19:29:11.120,127870,18646,10770,102082,124791
2025-05-22 19:29:11.128,127849,18638,10768,102061,124787
2025-05-22 19:29:11.138,127822,18636,10750,102042,124768
2025-05-22 19:29:11.146,127806,18628,10752,102032,124748
2025-05-22 19:29:11.159,127782,18626,10757,102006,124734
2025-05-22 19:29:11.166,127746,18616,10752,101992,124723
2025-05-22 19:29:11.184,127752,18616,10755,101975,124701
2025-05-22 19:29:11.187,127731,18616,10757,101962,124668
2025-05-22 19:29:11.198,127723,18613,10758,101950,124664
2025-05-22 19:29:11.206,127717,18612,10745,101949,124660
2025-05-22 19:29:11.218,127729,18613,10749,101935,124642
2025-05-22 19:29:11.226,127717,18613,10758,101934,124643
2025-05-22 19:29:11.248,127713,18606,10752,101922,124640
2025-05-22 19:29:11.249,127704,18606,10758,101923,124660
2025-05-22 19:29:11.259,127716,18605,10754,101927,124642
2025-05-22 19:29:11.270,127706,18612,10749,101909,124640
2025-05-22 19:29:11.278,127718,18605,10752,101924,124641
2025-05-22 19:29:11.290,127706,18602,10751,101914,124645
2025-05-22 19:29:11.312,127706,18602,10750,101924,124624
2025-05-22 19:29:11.314,127705,18597,10753,101903,124628
2025-05-22 19:29:11.318,127708,18592,10745,101901,124627
2025-05-22 19:29:11.330,127702,18597,10742,101917,124622
2025-05-22 19:29:11.338,127699,18590,10742,101914,124625
2025-05-22 19:29:11.350,127677,18588,10749,101898,124612
2025-05-22 19:29:11.358,127666,18587,10737,101889,124598
2025-05-22 19:29:11.377,127658,18581,10754,101890,124573
2025-05-22 19:29:11.378,127666,18589,10738,101863,124569
2025-05-22 19:29:11.390,127654,18579,10740,101865,124568
2025-05-22 19:29:11.398,127649,18582,10744,101851,124578
2025-05-22 19:29:11.410,127642,18584,10734,101862,124575
2025-05-22 19:29:11.419,127637,18580,10735,101872,124563
2025-05-22 19:29:11.441,127636,18580,10745,101870,124557
2025-05-22 19:29:11.443,127634,18586,10745,101844,124571
2025-05-22 19:29:11.451,127624,18589,10751,101851,124561
2025-05-22 19:29:11.458,127614,18590,10761,101840,124550
2025-05-22 19:29:11.471,127610,18592,10751,101843,124545
2025-05-22 19:29:11.478,127636,18596,10755,101828,124536
2025-05-22 19:29:11.490,127631,18597,10767,101833,124556
2025-05-22 19:29:11.505,127644,18599,10756,101838,124554
2025-05-22 19:29:11.510,127648,18604,10754,101849,124552
2025-05-22 19:29:11.518,127650,18608,10759,101837,124569
2025-05-22 19:29:11.530,127657,18624,10764,101853,124584
2025-05-22 19:29:11.539,127685,18622,10769,101866,124572
2025-05-22 19:29:11.551,127687,18628,10775,101864,124601
2025-05-22 19:29:11.568,127694,18627,10775,101877,124604
2025-05-22 19:29:11.570,127695,18641,10780,101883,124598
2025-05-22 19:29:11.582,127723,18639,10783,101878,124613
2025-05-22 19:29:11.590,127720,18648,10783,101886,124610
2025-05-22 19:29:11.602,127731,18654,10787,101900,124613
2025-05-22 19:29:11.610,127744,18662,10797,101916,124632
2025-05-22 19:29:11.636,127750,18667,10799,101919,124628
2025-05-22 19:29:11.637,127744,18670,10802,101933,124648
2025-05-22 19:29:11.642,127767,18683,10805,101936,124667
2025-05-22 19:29:11.650,127775,18684,10806,101942,124665
2025-05-22 19:29:11.662,127792,18685,10817,101951,124681
2025-05-22 19:29:11.670,127797,18693,10816,101974,124682
2025-05-22 19:29:11.682,127802,18705,10813,101978,124685
2025-05-22 19:29:11.701,127808,18703,10822,101986,124694
2025-05-22 19:29:11.703,127812,18706,10824,101977,124701
2025-05-22 19:29:11.711,127809,18713,10819,102000,124710
2025-05-22 19:29:11.723,127828,18722,10826,101999,124720
2025-05-22 19:29:11.730,127830,18727,10837,102002,124734
2025-05-22 19:29:11.742,127846,18731,10828,102005,124702
2025-05-22 19:29:11.750,127846,18742,10840,102003,124738
2025-05-22 19:29:11.766,127847,18739,10845,102007,124733
2025-05-22 19:29:11.770,127849,18752,10848,102020,124749
2025-05-22 19:29:11.782,127870,18747,10844,102018,124749
2025-05-22 19:29:11.790,127879,18761,10858,102029,124745
2025-05-22 19:29:11.802,127895,18781,10858,102023,124771
2025-05-22 19:29:11.809,127899,18773,10867,102049,124770
2025-05-22 19:29:11.831,127912,18782,10862,102060,124774
2025-05-22 19:29:11.834,127926,18792,10866,102053,124804
2025-05-22 19:29:11.843,127953,18797,10871,102079,124811
2025-05-22 19:29:11.854,127960,18800,10879,102090,124819
2025-05-22 19:29:11.863,127969,18804,10879,102105,124830
2025-05-22 19:29:11.874,127987,18817,10887,102110,124848
2025-05-22 19:29:11.878,127987,18817,10887,102110,124848
2025-05-22 19:29:11.895,128013,18824,10891,102133,124852
2025-05-22 19:29:11.896,128037,18828,10884,102150,124875
2025-05-22 19:29:11.903,128080,18828,10882,102159,124906
2025-05-22 19:29:11.914,128104,18822,10880,102206,124921
2025-05-22 19:29:11.922,128113,18820,10878,102221,124926
2025-05-22 19:29:11.934,128114,18804,10864,102226,124946
2025-05-22 19:29:11.942,128115,18796,10857,102247,124945
2025-05-22 19:29:11.959,128088,18786,10846,102235,124930
2025-05-22 19:29:11.962,128065,18766,10835,102239,124936
2025-05-22 19:29:11.974,128046,18759,10834,102229,124920
2025-05-22 19:29:11.982,127994,18737,10817,102209,124898
2025-05-22 19:29:11.994,127966,18725,10809,102175,124876
2025-05-22 19:29:12.001,127925,18709,10794,102165,124834
2025-05-22 19:29:12.023,127895,18688,10789,102143,124805
2025-05-22 19:29:12.024,127868,18678,10779,102124,124762
2025-05-22 19:29:12.034,127834,18664,10774,102084,124774
2025-05-22 19:29:12.042,127809,18642,10769,102052,124720
2025-05-22 19:29:12.054,127790,18639,10765,102037,124709
2025-05-22 19:29:12.063,127780,18627,10759,102022,124682
2025-05-22 19:29:12.087,127770,18626,10757,102000,124654
2025-05-22 19:29:12.089,127735,18617,10753,101987,124648
2025-05-22 19:29:12.094,127748,18615,10757,101976,124637
2025-05-22 19:29:12.106,127736,18609,10747,101963,124621
2025-05-22 19:29:12.114,127724,18612,10759,101955,124621
2025-05-22 19:29:12.127,127716,18616,10755,101964,124618
2025-05-22 19:29:12.134,127737,18612,10755,101938,124615
2025-05-22 19:29:12.184,127727,18624,10752,101933,124614
2025-05-22 19:29:12.186,127745,18615,10754,101953,124621
2025-05-22 19:29:12.188,127743,18628,10758,101946,124620
2025-05-22 19:29:12.190,127754,18622,10762,101940,124620
2025-05-22 19:29:12.192,127748,18623,10760,101951,124625
2025-05-22 19:29:12.194,127771,18630,10760,101970,124632
2025-05-22 19:29:12.206,127763,18619,10758,101964,124626
2025-05-22 19:29:12.215,127782,18627,10757,101975,124626
2025-05-22 19:29:12.226,127786,18610,10757,101959,124643
2025-05-22 19:29:12.294,127788,18613,10764,101975,124639
2025-05-22 19:29:12.296,127783,18613,10759,101974,124660
2025-05-22 19:29:12.298,127783,18607,10756,101970,124642
2025-05-22 19:29:12.299,127799,18616,10747,101984,124634
2025-05-22 19:29:12.302,127796,18601,10761,101983,124653
2025-05-22 19:29:12.303,127785,18615,10754,101988,124640
2025-05-22 19:29:12.305,127780,18611,10756,101968,124629
2025-05-22 19:29:12.307,127765,18616,10751,101970,124639
2025-05-22 19:29:12.314,127780,18622,10752,101975,124628
2025-05-22 19:29:12.327,127768,18610,10751,101978,124628
2025-05-22 19:29:12.334,127788,18628,10763,101961,124622
2025-05-22 19:29:12.363,127773,18617,10760,101961,124631
2025-05-22 19:29:12.365,127771,18630,10769,101957,124632
2025-05-22 19:29:12.367,127762,18622,10763,101966,124622
2025-05-22 19:29:12.378,127771,18629,10765,101951,124624
2025-05-22 19:29:12.386,127778,18625,10779,101969,124609
2025-05-22 19:29:12.398,127796,18630,10770,101960,124634
2025-05-22 19:29:12.406,127799,18642,10788,101978,124633
2025-05-22 19:29:12.433,127817,18640,10772,101976,124632
2025-05-22 19:29:12.435,127817,18644,10790,101979,124639
2025-05-22 19:29:12.439,127821,18655,10774,101988,124660
2025-05-22 19:29:12.446,127837,18668,10776,102006,124661
2025-05-22 19:29:12.459,127846,18667,10790,102000,124664
2025-05-22 19:29:12.466,127851,18670,10772,102007,124664
2025-05-22 19:29:12.478,127871,18678,10791,102012,124686
2025-05-22 19:29:12.500,127870,18679,10780,102021,124699
2025-05-22 19:29:12.501,127882,18688,10790,102031,124695
2025-05-22 19:29:12.506,127895,18688,10800,102028,124717
2025-05-22 19:29:12.518,127909,18700,10795,102058,124718
2025-05-22 19:29:12.526,127919,18711,10814,102069,124732
2025-05-22 19:29:12.538,127921,18718,10805,102084,124743
2025-05-22 19:29:12.546,127934,18724,10821,102078,124758
2025-05-22 19:29:12.564,127951,18730,10837,102083,124755
2025-05-22 19:29:12.566,127967,18733,10830,102090,124765
2025-05-22 19:29:12.579,127960,18739,10845,102094,124778
2025-05-22 19:29:12.586,127983,18752,10829,102118,124786
2025-05-22 19:29:12.598,127981,18755,10850,102120,124797
2025-05-22 19:29:12.605,127987,18758,10846,102129,124808
2025-05-22 19:29:12.629,127999,18765,10853,102129,124797
2025-05-22 19:29:12.631,127999,18773,10856,102142,124817
2025-05-22 19:29:12.638,128028,18776,10849,102141,124813
2025-05-22 19:29:12.650,128037,18786,10854,102164,124833
2025-05-22 19:29:12.658,128039,18790,10864,102173,124830
2025-05-22 19:29:12.671,128054,18796,10869,102153,124842
2025-05-22 19:29:12.678,128070,18808,10868,102176,124856
2025-05-22 19:29:12.694,128070,18807,10872,102189,124867
2025-05-22 19:29:12.698,128085,18816,10873,102189,124884
2025-05-22 19:29:12.710,128094,18829,10879,102194,124893
2025-05-22 19:29:12.719,128119,18833,10887,102211,124903
2025-05-22 19:29:12.730,128125,18834,10895,102231,124910
2025-05-22 19:29:12.738,128141,18849,10897,102226,124919
2025-05-22 19:29:12.758,128150,18855,10901,102243,124938
2025-05-22 19:29:12.760,128159,18865,10905,102264,124940
2025-05-22 19:29:12.770,128157,18866,10909,102269,124934
2025-05-22 19:29:12.778,128161,18875,10918,102265,124953
2025-05-22 19:29:12.790,128174,18880,10909,102276,124958
2025-05-22 19:29:12.799,128182,18891,10926,102276,124977
2025-05-22 19:29:12.823,128203,18898,10928,102281,124968
2025-05-22 19:29:12.824,128210,18898,10932,102302,124986
2025-05-22 19:29:12.830,128239,18919,10936,102313,125003
2025-05-22 19:29:12.839,128253,18921,10945,102303,125002
2025-05-22 19:29:12.850,128259,18928,10945,102332,125016
2025-05-22 19:29:12.859,128291,18934,10951,102345,125019
2025-05-22 19:29:12.870,128306,18933,10950,102348,125048
2025-05-22 19:29:12.888,128336,18941,10953,102378,125064
2025-05-22 19:29:12.890,128372,18940,10944,102385,125090
2025-05-22 19:29:12.899,128425,18949,10953,102443,125107
2025-05-22 19:29:12.910,128474,18946,10945,102466,125156
2025-05-22 19:29:12.918,128499,18944,10941,102499,125174
2025-05-22 19:29:12.930,128531,18933,10934,102503,125197
2025-05-22 19:29:12.953,128533,18930,10925,102532,125198
2025-05-22 19:29:12.954,128530,18920,10917,102539,125212
2025-05-22 19:29:12.962,128511,18906,10900,102531,125218
2025-05-22 19:29:12.970,128490,18884,10896,102521,125197
2025-05-22 19:29:12.983,128459,18871,10887,102489,125176
2025-05-22 19:29:12.990,128419,18848,10884,102490,125127
2025-05-22 19:29:13.002,128373,18834,10861,102468,125119
2025-05-22 19:29:13.017,128343,18816,10858,102446,125112
2025-05-22 19:29:13.022,128310,18806,10851,102424,125079
2025-05-22 19:29:13.030,128273,18791,10838,102390,125053
2025-05-22 19:29:13.042,128245,18777,10839,102370,125024
2025-05-22 19:29:13.050,128226,18769,10830,102371,124993
2025-05-22 19:29:13.062,128205,18754,10834,102345,124991
2025-05-22 19:29:13.082,128210,18755,10828,102344,124961
2025-05-22 19:29:13.083,128193,18749,10831,102308,124953
2025-05-22 19:29:13.086,128193,18749,10831,102308,124953
2025-05-22 19:29:13.090,128185,18740,10831,102285,124941
2025-05-22 19:29:13.102,128173,18745,10820,102286,124919
2025-05-22 19:29:13.110,128164,18738,10839,102269,124921
2025-05-22 19:29:13.122,128162,18732,10829,102274,124897
2025-05-22 19:29:13.130,128163,18734,10829,102249,124905
2025-05-22 19:29:13.147,128160,18741,10830,102256,124889
2025-05-22 19:29:13.150,128190,18745,10833,102256,124913
2025-05-22 19:29:13.162,128220,18745,10830,102262,124911
2025-05-22 19:29:13.171,128245,18744,10830,102268,124914
2025-05-22 19:29:13.182,128271,18744,10837,102280,124925
2025-05-22 19:29:13.190,128301,18756,10837,102277,124914
2025-05-22 19:29:13.211,128284,18750,10835,102291,124934
2025-05-22 19:29:13.213,128323,18753,10837,102286,124933
2025-05-22 19:29:13.223,128344,18744,10834,102286,124922
2025-05-22 19:29:13.234,128339,18746,10838,102281,124942
2025-05-22 19:29:13.242,128336,18748,10829,102281,124931
2025-05-22 19:29:13.253,128334,18740,10826,102290,124932
2025-05-22 19:29:13.276,128344,18749,10831,102279,124946
2025-05-22 19:29:13.277,128351,18740,10831,102283,124929
2025-05-22 19:29:13.281,128337,18738,10832,102277,124933
2025-05-22 19:29:13.294,128335,18735,10827,102269,124940
2025-05-22 19:29:13.302,128331,18734,10828,102276,124936
2025-05-22 19:29:13.314,128330,18732,10837,102282,124919
2025-05-22 19:29:13.323,128325,18740,10831,102265,124940
2025-05-22 19:29:13.341,128327,18737,10830,102269,124924
2025-05-22 19:29:13.342,128337,18739,10835,102268,124933
2025-05-22 19:29:13.354,128336,18738,10836,102271,124922
2025-05-22 19:29:13.362,128340,18745,10839,102272,124929
2025-05-22 19:29:13.375,128356,18748,10846,102283,124933
2025-05-22 19:29:13.382,128364,18751,10843,102265,124948
2025-05-22 19:29:13.406,128367,18758,10848,102273,124945
2025-05-22 19:29:13.407,128380,18760,10846,102294,124954
2025-05-22 19:29:13.415,128368,18761,10852,102291,124953
2025-05-22 19:29:13.423,128389,18771,10854,102302,124958
2025-05-22 19:29:13.434,128379,18777,10858,102304,124980
2025-05-22 19:29:13.441,128387,18779,10860,102304,124977
2025-05-22 19:29:13.454,128385,18786,10871,102316,124980
2025-05-22 19:29:13.471,128391,18785,10877,102312,124990
2025-05-22 19:29:13.474,128413,18803,10876,102319,124984
2025-05-22 19:29:13.486,128412,18796,10878,102329,125000
2025-05-22 19:29:13.494,128429,18810,10878,102333,125019
2025-05-22 19:29:13.502,128446,18824,10882,102346,125024
2025-05-22 19:29:13.514,128461,18827,10889,102357,125027
2025-05-22 19:29:13.537,128470,18832,10887,102374,125039
2025-05-22 19:29:13.538,128467,18833,10896,102362,125023
2025-05-22 19:29:13.547,128476,18840,10899,102377,125040
2025-05-22 19:29:13.554,128479,18846,10898,102378,125054
2025-05-22 19:29:13.566,128493,18849,10908,102382,125049
2025-05-22 19:29:13.574,128487,18858,10907,102407,125078
2025-05-22 19:29:13.602,128512,18858,10908,102415,125087
2025-05-22 19:29:13.603,128510,18871,10913,102427,125097
2025-05-22 19:29:13.605,128522,18883,10922,102438,125106
2025-05-22 19:29:13.614,128537,18883,10926,102427,125110
2025-05-22 19:29:13.626,128531,18890,10925,102459,125114
2025-05-22 19:29:13.635,128543,18893,10934,102455,125127
2025-05-22 19:29:13.646,128562,18904,10933,102457,125138
2025-05-22 19:29:13.667,128561,18903,10942,102453,125125
2025-05-22 19:29:13.668,128576,18920,10948,102462,125157
2025-05-22 19:29:13.674,128582,18915,10951,102466,125164
2025-05-22 19:29:13.686,128588,18923,10948,102477,125152
2025-05-22 19:29:13.694,128604,18930,10956,102492,125161
2025-05-22 19:29:13.707,128612,18939,10957,102507,125168
2025-05-22 19:29:13.714,128611,18946,10963,102515,125167
2025-05-22 19:29:13.731,128627,18943,10965,102503,125189
2025-05-22 19:29:13.733,128617,18962,10975,102502,125198
2025-05-22 19:29:13.746,128641,18961,10973,102527,125209
2025-05-22 19:29:13.754,128661,18974,10983,102530,125194
2025-05-22 19:29:13.767,128648,18977,10978,102537,125219
2025-05-22 19:29:13.774,128659,18990,10993,102548,125229
2025-05-22 19:29:13.795,128674,19004,10997,102554,125243
2025-05-22 19:29:13.796,128666,19014,10998,102570,125245
2025-05-22 19:29:13.806,128712,19007,10998,102566,125259
2025-05-22 19:29:13.814,128729,19016,11003,102592,125268
2025-05-22 19:29:13.827,128724,19022,11012,102581,125275
2025-05-22 19:29:13.838,128743,19032,11019,102599,125283
2025-05-22 19:29:13.859,128746,19041,11021,102617,125301
2025-05-22 19:29:13.860,128764,19045,11032,102612,125312
2025-05-22 19:29:13.865,128775,19058,11023,102627,125316
2025-05-22 19:29:13.878,128786,19057,11024,102649,125338
2025-05-22 19:29:13.887,128825,19069,11030,102657,125341
2025-05-22 19:29:13.898,128861,19070,11024,102677,125377
2025-05-22 19:29:13.905,128905,19065,11031,102703,125394
2025-05-22 19:29:13.923,128938,19068,11031,102735,125418
2025-05-22 19:29:13.926,128966,19067,11019,102764,125436
2025-05-22 19:29:13.938,128984,19057,11013,102792,125463
2025-05-22 19:29:13.946,128970,19054,11006,102804,125473
2025-05-22 19:29:13.958,128966,19035,10996,102809,125462
2025-05-22 19:29:13.966,128953,19027,10991,102821,125476
2025-05-22 19:29:13.988,128935,19007,10975,102819,125468
2025-05-22 19:29:13.989,128916,19000,10969,102814,125448
2025-05-22 19:29:13.998,128892,18973,10959,102794,125444
2025-05-22 19:29:14.006,128854,18975,10957,102783,125416
2025-05-22 19:29:14.018,128838,18952,10935,102766,125378
2025-05-22 19:29:14.026,128809,18939,10935,102756,125383
2025-05-22 19:29:14.054,128769,18933,10935,102743,125347
2025-05-22 19:29:14.056,128734,18921,10931,102719,125330
2025-05-22 19:29:14.058,128692,18910,10927,102695,125331
2025-05-22 19:29:14.066,128692,18904,10926,102682,125297
2025-05-22 19:29:14.077,128639,18893,10923,102665,125297
2025-05-22 19:29:14.090,128616,18891,10926,102635,125253
2025-05-22 19:29:14.097,128616,18894,10919,102630,125247
2025-05-22 19:29:14.119,128580,18891,10923,102614,125247
2025-05-22 19:29:14.120,128577,18888,10926,102595,125228
2025-05-22 19:29:14.127,128570,18888,10923,102595,125219
2025-05-22 19:29:14.138,128566,18895,10922,102589,125213
2025-05-22 19:29:14.150,128543,18889,10924,102584,125210
2025-05-22 19:29:14.159,128536,18885,10925,102559,125204
2025-05-22 19:29:14.183,128549,18884,10929,102553,125187
2025-05-22 19:29:14.185,128554,18894,10923,102567,125208
2025-05-22 19:29:14.190,128581,18887,10929,102572,125215
2025-05-22 19:29:14.198,128597,18884,10927,102579,125222
2025-05-22 19:29:14.210,128591,18890,10920,102583,125210
2025-05-22 19:29:14.218,128597,18887,10929,102594,125222
2025-05-22 19:29:14.230,128607,18889,10928,102592,125227
2025-05-22 19:29:14.249,128609,18887,10931,102605,125236
2025-05-22 19:29:14.250,128614,18903,10929,102603,125239
2025-05-22 19:29:14.258,128589,18878,10939,102603,125237
2025-05-22 19:29:14.270,128604,18882,10931,102605,125225
2025-05-22 19:29:14.278,128602,18890,10925,102603,125233
2025-05-22 19:29:14.290,128595,18888,10930,102599,125230
2025-05-22 19:29:14.294,128595,18888,10930,102599,125230
2025-05-22 19:29:14.315,128593,18893,10924,102598,125227
2025-05-22 19:29:14.316,128575,18892,10931,102585,125222
2025-05-22 19:29:14.318,128557,18885,10932,102583,125204
2025-05-22 19:29:14.330,128558,18885,10932,102581,125208
2025-05-22 19:29:14.338,128546,18883,10930,102565,125216
2025-05-22 19:29:14.350,128538,18887,10944,102584,125217
2025-05-22 19:29:14.359,128545,18886,10935,102566,125206
2025-05-22 19:29:14.380,128540,18886,10937,102551,125197
2025-05-22 19:29:14.381,128548,18888,10938,102555,125213
2025-05-22 19:29:14.390,128539,18890,10949,102573,125208
2025-05-22 19:29:14.398,128562,18893,10950,102555,125212
2025-05-22 19:29:14.410,128564,18896,10947,102570,125217
2025-05-22 19:29:14.417,128544,18910,10947,102572,125211
2025-05-22 19:29:14.445,128559,18918,10954,102577,125212
2025-05-22 19:29:14.447,128562,18918,10953,102586,125223
2025-05-22 19:29:14.451,128585,18919,10952,102568,125232
2025-05-22 19:29:14.462,128589,18926,10966,102572,125239
2025-05-22 19:29:14.470,128599,18923,10970,102584,125242
2025-05-22 19:29:14.482,128613,18938,10976,102600,125267
2025-05-22 19:29:14.490,128631,18945,10974,102610,125261
2025-05-22 19:29:14.511,128627,18944,10979,102613,125255
2025-05-22 19:29:14.512,128627,18957,10975,102618,125273
2025-05-22 19:29:14.521,128642,18959,10996,102634,125276
2025-05-22 19:29:14.530,128651,18964,10993,102629,125283
2025-05-22 19:29:14.542,128667,18979,10993,102644,125284
2025-05-22 19:29:14.549,128682,18977,11002,102632,125314
2025-05-22 19:29:14.576,128694,18988,11000,102657,125300
2025-05-22 19:29:14.577,128710,18986,11004,102653,125326
2025-05-22 19:29:14.581,128715,18999,11008,102669,125352
2025-05-22 19:29:14.590,128723,19005,11012,102681,125332
2025-05-22 19:29:14.602,128734,19009,11015,102688,125350
2025-05-22 19:29:14.611,128737,19018,11020,102701,125355
2025-05-22 19:29:14.622,128762,19022,11026,102700,125374
2025-05-22 19:29:14.641,128775,19031,11025,102715,125395
2025-05-22 19:29:14.642,128779,19043,11028,102722,125405
2025-05-22 19:29:14.650,128793,19042,11032,102735,125407
2025-05-22 19:29:14.662,128796,19052,11040,102759,125412
2025-05-22 19:29:14.670,128811,19056,11043,102763,125428
2025-05-22 19:29:14.682,128814,19059,11046,102756,125432
2025-05-22 19:29:14.705,128821,19067,11053,102769,125439
2025-05-22 19:29:14.707,128831,19077,11061,102788,125446
2025-05-22 19:29:14.710,128844,19082,11058,102798,125466
2025-05-22 19:29:14.721,128854,19089,11060,102798,125469
2025-05-22 19:29:14.734,128862,19096,11064,102815,125488
2025-05-22 19:29:14.742,128867,19109,11076,102800,125478
2025-05-22 19:29:14.770,128884,19116,11077,102815,125501
2025-05-22 19:29:14.772,128885,19131,11086,102836,125495
2025-05-22 19:29:14.774,128898,19123,11082,102841,125517
2025-05-22 19:29:14.781,128870,19135,11091,102843,125527
2025-05-22 19:29:14.794,128884,19148,11099,102854,125512
2025-05-22 19:29:14.801,128892,19150,11099,102851,125534
2025-05-22 19:29:14.814,128880,19160,11099,102841,125524
2025-05-22 19:29:14.834,128887,19161,11107,102856,125523
2025-05-22 19:29:14.836,128887,19168,11111,102861,125547
2025-05-22 19:29:14.843,128911,19171,11112,102848,125543
2025-05-22 19:29:14.854,128896,19178,11113,102848,125535
2025-05-22 19:29:14.863,128922,19178,11123,102863,125539
2025-05-22 19:29:14.874,128918,19193,11125,102877,125579
2025-05-22 19:29:14.882,128961,19191,11123,102890,125563
2025-05-22 19:29:14.899,128987,19194,11123,102893,125597
2025-05-22 19:29:14.902,129033,19201,11127,102912,125610
2025-05-22 19:29:14.914,129089,19215,11128,102964,125642
2025-05-22 19:29:14.922,129131,19210,11127,102978,125696
2025-05-22 19:29:14.934,129176,19218,11122,103018,125701
2025-05-22 19:29:14.942,129222,19209,11121,103051,125749
2025-05-22 19:29:14.965,129235,19206,11117,103079,125771
2025-05-22 19:29:14.966,129258,19194,11109,103110,125781
2025-05-22 19:29:14.973,129263,19196,11101,103123,125784
2025-05-22 19:29:14.982,129255,19176,11099,103134,125790
2025-05-22 19:29:14.994,129267,19163,11082,103133,125800
2025-05-22 19:29:15.003,129232,19157,11074,103131,125789
2025-05-22 19:29:15.014,129192,19132,11064,103132,125779
2025-05-22 19:29:15.031,129177,19122,11056,103109,125757
2025-05-22 19:29:15.034,129134,19108,11043,103103,125740
2025-05-22 19:29:15.046,129122,19090,11039,103097,125740
2025-05-22 19:29:15.054,129090,19076,11040,103077,125715
2025-05-22 19:29:15.066,129065,19075,11037,103075,125713
2025-05-22 19:29:15.074,129026,19052,11023,103055,125677
2025-05-22 19:29:15.094,129007,19050,11025,103040,125657
2025-05-22 19:29:15.096,128979,19042,11013,103024,125648
2025-05-22 19:29:15.105,128980,19038,11014,103017,125643
2025-05-22 19:29:15.113,128948,19042,11013,102971,125618
2025-05-22 19:29:15.125,128921,19028,11012,102976,125614
2025-05-22 19:29:15.134,128913,19022,11014,102965,125586
2025-05-22 19:29:15.158,128886,19016,11011,102959,125584
2025-05-22 19:29:15.160,128878,19023,11015,102948,125567
2025-05-22 19:29:15.166,128886,19018,11013,102944,125559
2025-05-22 19:29:15.175,128874,19016,11011,102941,125555
2025-05-22 19:29:15.186,128887,19016,11023,102937,125547
2025-05-22 19:29:15.194,128883,19026,11019,102927,125543
2025-05-22 19:29:15.205,128866,19030,11016,102916,125563
2025-05-22 19:29:15.224,128858,19022,11018,102922,125549
2025-05-22 19:29:15.226,128862,19035,11014,102914,125550
2025-05-22 19:29:15.234,128858,19024,11015,102917,125537
2025-05-22 19:29:15.246,128862,19028,11018,102907,125531
2025-05-22 19:29:15.255,128871,19021,11012,102912,125550
2025-05-22 19:29:15.266,128861,19027,11008,102922,125546
2025-05-22 19:29:15.289,128863,19024,11006,102919,125534
2025-05-22 19:29:15.291,128856,19019,11017,102926,125551
2025-05-22 19:29:15.297,128849,19016,11006,102897,125536
2025-05-22 19:29:15.306,128840,19020,11017,102902,125536
2025-05-22 19:29:15.314,128819,19009,11003,102897,125529
2025-05-22 19:29:15.326,128809,19014,11013,102901,125514
2025-05-22 19:29:15.338,128783,19011,11013,102893,125522
2025-05-22 19:29:15.357,128762,19006,10992,102892,125504
2025-05-22 19:29:15.358,128724,19010,11015,102873,125499
2025-05-22 19:29:15.366,128701,19014,11012,102856,125468
2025-05-22 19:29:15.378,128671,19007,11026,102836,125477
2025-05-22 19:29:15.386,128641,19011,11021,102819,125456
2025-05-22 19:29:15.398,128584,19001,11029,102806,125430
2025-05-22 19:29:15.424,128582,19012,11008,102775,125419
2025-05-22 19:29:15.425,128546,18994,11022,102757,125389
2025-05-22 19:29:15.427,128535,19008,11020,102756,125393
2025-05-22 19:29:15.438,128536,19023,11025,102736,125387
2025-05-22 19:29:15.445,128522,19004,11022,102721,125372
2025-05-22 19:29:15.458,128499,19007,11027,102716,125365
2025-05-22 19:29:15.466,128506,19013,11026,102709,125347
2025-05-22 19:29:15.488,128494,19014,11030,102699,125357
2025-05-22 19:29:15.489,128489,19008,11032,102694,125351
2025-05-22 19:29:15.498,128497,19024,11037,102695,125337
2025-05-22 19:29:15.501,128497,19024,11037,102695,125337
2025-05-22 19:29:15.506,128498,19024,11039,102686,125346
2025-05-22 19:29:15.517,128502,19033,11041,102690,125342
2025-05-22 19:29:15.526,128514,19034,11050,102705,125349
2025-05-22 19:29:15.553,128503,19040,11063,102692,125373
2025-05-22 19:29:15.554,128507,19038,11050,102708,125369
2025-05-22 19:29:15.557,128512,19054,11054,102695,125370
2025-05-22 19:29:15.566,128510,19057,11059,102710,125354
2025-05-22 19:29:15.578,128518,19057,11056,102700,125380
2025-05-22 19:29:15.586,128528,19065,11062,102713,125378
2025-05-22 19:29:15.597,128544,19061,11065,102720,125367
2025-05-22 19:29:15.617,128552,19064,11063,102729,125389
2025-05-22 19:29:15.618,128563,19068,11062,102723,125397
2025-05-22 19:29:15.630,128588,19080,11071,102720,125398
2025-05-22 19:29:15.638,128607,19077,11074,102724,125415
2025-05-22 19:29:15.650,128616,19089,11075,102758,125436
2025-05-22 19:29:15.658,128657,19097,11078,102763,125459
2025-05-22 19:29:15.683,128656,19099,11087,102796,125464
2025-05-22 19:29:15.684,128677,19114,11089,102799,125466
2025-05-22 19:29:15.690,128672,19121,11090,102806,125481
2025-05-22 19:29:15.698,128680,19117,11088,102808,125485
2025-05-22 19:29:15.711,128704,19124,11092,102806,125501
2025-05-22 19:29:15.718,128724,19134,11098,102820,125512
2025-05-22 19:29:15.730,128731,19139,11097,102827,125513
2025-05-22 19:29:15.747,128754,19150,11110,102861,125532
2025-05-22 19:29:15.750,128766,19152,11097,102883,125539
2025-05-22 19:29:15.758,128781,19160,11112,102877,125568
2025-05-22 19:29:15.770,128775,19173,11115,102895,125564
2025-05-22 19:29:15.778,128801,19181,11118,102886,125581
2025-05-22 19:29:15.790,128804,19185,11131,102906,125583
2025-05-22 19:29:15.812,128813,19192,11122,102910,125615
2025-05-22 19:29:15.813,128823,19199,11133,102919,125620
2025-05-22 19:29:15.817,128846,19205,11141,102935,125615
2025-05-22 19:29:15.829,128851,19208,11138,102924,125616
2025-05-22 19:29:15.838,128866,19219,11146,102952,125637
2025-05-22 19:29:15.850,128884,19223,11153,102948,125663
2025-05-22 19:29:15.858,128882,19235,11165,102965,125654
2025-05-22 19:29:15.875,128885,19234,11156,102971,125649
2025-05-22 19:29:15.878,128901,19251,11156,102976,125661
2025-05-22 19:29:15.890,128899,19249,11161,102994,125682
2025-05-22 19:29:15.902,128930,19261,11162,102981,125669
2025-05-22 19:29:15.909,128943,19258,11160,102986,125702
2025-05-22 19:29:15.922,128987,19257,11161,103014,125694
2025-05-22 19:29:15.941,129014,19265,11164,103045,125731
2025-05-22 19:29:15.942,129040,19259,11155,103056,125754
2025-05-22 19:29:15.949,129058,19257,11153,103085,125767
2025-05-22 19:29:15.962,129094,19256,11145,103124,125796
2025-05-22 19:29:15.970,129108,19244,11136,103147,125810
2025-05-22 19:29:15.982,129136,19230,11132,103146,125832
2025-05-22 19:29:16.006,129135,19212,11123,103174,125847
2025-05-22 19:29:16.007,129142,19214,11117,103181,125831
2025-05-22 19:29:16.009,129104,19193,11106,103174,125833
2025-05-22 19:29:16.022,129079,19181,11100,103165,125827
2025-05-22 19:29:16.029,129033,19165,11091,103164,125807
2025-05-22 19:29:16.042,129033,19165,11091,103164,125807
2025-05-22 19:29:16.050,128997,19154,11079,103146,125784
2025-05-22 19:29:16.071,128974,19137,11075,103115,125755
2025-05-22 19:29:16.072,128948,19137,11071,103097,125725
2025-05-22 19:29:16.082,128937,19119,11061,103076,125714
2025-05-22 19:29:16.089,128938,19111,11064,103055,125719
2025-05-22 19:29:16.102,128905,19097,11058,103058,125692
2025-05-22 19:29:16.105,128905,19097,11058,103058,125692
2025-05-22 19:29:16.110,128896,19096,11050,103028,125694
2025-05-22 19:29:16.136,128881,19091,11056,103032,125686
2025-05-22 19:29:16.137,128874,19091,11054,103031,125673
2025-05-22 19:29:16.142,128866,19086,11049,103004,125657
2025-05-22 19:29:16.150,128852,19085,11052,103012,125650
2025-05-22 19:29:16.162,128869,19087,11054,102999,125646
2025-05-22 19:29:16.170,128875,19095,11053,102996,125651
2025-05-22 19:29:16.181,128889,19089,11059,102989,125641
2025-05-22 19:29:16.199,128901,19077,11054,103003,125663
2025-05-22 19:29:16.202,128938,19090,11057,103011,125668
2025-05-22 19:29:16.215,128971,19095,11057,103007,125677
2025-05-22 19:29:16.222,129007,19096,11064,103027,125695
2025-05-22 19:29:16.234,129064,19095,11062,103067,125697
2025-05-22 19:29:16.241,129094,19098,11063,103075,125717
2025-05-22 19:29:16.264,129132,19097,11061,103092,125742
2025-05-22 19:29:16.265,129173,19106,11061,103119,125765
2025-05-22 19:29:16.274,129207,19107,11060,103136,125775
2025-05-22 19:29:16.282,129239,19106,11059,103148,125796
2025-05-22 19:29:16.293,129239,19102,11064,103147,125805
2025-05-22 19:29:16.302,129266,19109,11062,103156,125783
2025-05-22 19:29:16.313,129300,19101,11060,103153,125800
2025-05-22 19:29:16.331,129279,19106,11061,103170,125794
2025-05-22 19:29:16.334,129248,19107,11060,103158,125787
2025-05-22 19:29:16.342,129239,19100,11057,103140,125781
2025-05-22 19:29:16.354,129221,19104,11061,103130,125752
2025-05-22 19:29:16.362,129205,19106,11063,103109,125750
2025-05-22 19:29:16.373,129198,19106,11065,103079,125720
2025-05-22 19:29:16.395,129206,19112,11067,103082,125737
2025-05-22 19:29:16.397,129189,19111,11063,103078,125720
2025-05-22 19:29:16.401,129207,19105,11067,103074,125696
2025-05-22 19:29:16.413,129224,19114,11072,103070,125715
2025-05-22 19:29:16.423,129223,19104,11067,103065,125698
2025-05-22 19:29:16.433,129223,19117,11067,103071,125702
2025-05-22 19:29:16.442,129238,19105,11065,103059,125698
2025-05-22 19:29:16.460,129245,19110,11068,103065,125694
2025-05-22 19:29:16.462,129276,19099,11069,103067,125711
2025-05-22 19:29:16.474,129319,19108,11075,103067,125721
2025-05-22 19:29:16.482,129371,19104,11067,103084,125723
2025-05-22 19:29:16.494,129436,19105,11071,103103,125780
2025-05-22 19:29:16.505,129477,19107,11075,103123,125801
2025-05-22 19:29:16.525,129511,19110,11080,103157,125817
2025-05-22 19:29:16.526,129555,19117,11082,103159,125820
2025-05-22 19:29:16.534,129575,19143,11074,103191,125864
2025-05-22 19:29:16.546,129588,19136,11084,103216,125867
2025-05-22 19:29:16.553,129627,19154,11091,103213,125882
2025-05-22 19:29:16.566,129633,19156,11099,103229,125912
2025-05-22 19:29:16.574,129658,19166,11100,103238,125926
2025-05-22 19:29:16.590,129671,19194,11098,103268,125930
2025-05-22 19:29:16.593,129693,19175,11104,103260,125934
2025-05-22 19:29:16.606,129714,19206,11102,103280,125938
2025-05-22 19:29:16.613,129727,19196,11117,103286,125940
2025-05-22 19:29:16.626,129759,19208,11117,103288,125961
2025-05-22 19:29:16.634,129772,19207,11125,103300,125966
2025-05-22 19:29:16.655,129791,19213,11125,103293,125972
2025-05-22 19:29:16.657,129790,19219,11133,103304,125987
2025-05-22 19:29:16.666,129807,19232,11126,103312,125994
2025-05-22 19:29:16.674,129821,19234,11150,103303,125988
2025-05-22 19:29:16.685,129832,19238,11133,103319,126000
2025-05-22 19:29:16.694,129851,19246,11150,103353,126003
2025-05-22 19:29:16.720,129868,19251,11145,103337,126028
2025-05-22 19:29:16.722,129868,19251,11145,103337,126028
2025-05-22 19:29:16.723,129865,19271,11158,103342,126029
2025-05-22 19:29:16.725,129868,19262,11147,103362,126025
2025-05-22 19:29:16.734,129867,19280,11156,103351,126046
2025-05-22 19:29:16.746,129883,19284,11158,103357,126035
2025-05-22 19:29:16.753,129872,19293,11164,103360,126048
2025-05-22 19:29:16.766,129879,19300,11176,103353,126039
2025-05-22 19:29:16.787,129871,19301,11176,103362,126020
2025-05-22 19:29:16.788,129869,19313,11189,103354,126021
2025-05-22 19:29:16.798,129865,19309,11198,103348,126039
2025-05-22 19:29:16.806,129869,19319,11196,103344,126029
2025-05-22 19:29:16.817,129887,19325,11203,103336,126031
2025-05-22 19:29:16.826,129880,19321,11197,103335,126026
2025-05-22 19:29:16.853,129889,19328,11206,103333,126019
2025-05-22 19:29:16.854,129919,19324,11195,103337,126035
2025-05-22 19:29:16.857,129965,19324,11204,103347,126025
2025-05-22 19:29:16.866,130010,19326,11202,103356,126050
2025-05-22 19:29:16.877,130082,19329,11195,103383,126065
2025-05-22 19:29:16.885,130134,19330,11197,103407,126092
2025-05-22 19:29:16.898,130191,19322,11185,103436,126115
2025-05-22 19:29:16.919,130238,19321,11182,103464,126147
2025-05-22 19:29:16.920,130273,19319,11178,103495,126166
2025-05-22 19:29:16.926,130290,19297,11169,103518,126183
2025-05-22 19:29:16.938,130292,19293,11161,103528,126201
2025-05-22 19:29:16.946,130264,19280,11149,103524,126198
2025-05-22 19:29:16.958,130239,19262,11135,103542,126169
2025-05-22 19:29:16.966,130209,19247,11129,103519,126156
2025-05-22 19:29:16.989,130169,19233,11124,103508,126146
2025-05-22 19:29:16.991,130121,19217,11120,103499,126107
2025-05-22 19:29:16.998,130076,19200,11106,103477,126104
2025-05-22 19:29:17.006,130027,19183,11104,103460,126083
2025-05-22 19:29:17.018,129984,19168,11095,103444,126064
2025-05-22 19:29:17.026,129933,19164,11094,103405,126025
2025-05-22 19:29:17.038,129893,19147,11084,103380,126010
2025-05-22 19:29:17.061,129870,19140,11082,103370,125982
2025-05-22 19:29:17.062,129840,19131,11079,103337,125979
2025-05-22 19:29:17.070,129801,19133,11073,103334,125950
2025-05-22 19:29:17.078,129765,19120,11075,103305,125928
2025-05-22 19:29:17.089,129728,19120,11075,103284,125911
2025-05-22 19:29:17.097,129715,19118,11076,103263,125873
2025-05-22 19:29:17.127,129699,19117,11070,103259,125861
2025-05-22 19:29:17.129,129680,19119,11074,103229,125853
2025-05-22 19:29:17.130,129653,19114,11087,103214,125832
2025-05-22 19:29:17.138,129663,19112,11079,103209,125843
2025-05-22 19:29:17.149,129636,19110,11076,103196,125819
2025-05-22 19:29:17.158,129646,19117,11072,103182,125804
2025-05-22 19:29:17.170,129645,19112,11077,103172,125806
2025-05-22 19:29:17.193,129651,19106,11076,103172,125791
2025-05-22 19:29:17.194,129657,19109,11072,103165,125797
2025-05-22 19:29:17.198,129659,19109,11072,103159,125793
2025-05-22 19:29:17.209,129673,19107,11069,103163,125785
2025-05-22 19:29:17.218,129652,19104,11070,103154,125814
2025-05-22 19:29:17.230,129673,19099,11076,103172,125791
2025-05-22 19:29:17.237,129677,19100,11067,103172,125786
2025-05-22 19:29:17.258,129671,19101,11066,103166,125794
2025-05-22 19:29:17.259,129671,19102,11065,103181,125804
2025-05-22 19:29:17.270,129673,19094,11063,103174,125802
2025-05-22 19:29:17.278,129671,19096,11068,103180,125810
2025-05-22 19:29:17.289,129662,19089,11068,103182,125803
2025-05-22 19:29:17.298,129661,19084,11067,103164,125785
2025-05-22 19:29:17.322,129656,19087,11059,103181,125796
2025-05-22 19:29:17.323,129648,19095,11065,103158,125779
2025-05-22 19:29:17.330,129626,19086,11063,103172,125795
2025-05-22 19:29:17.338,129607,19089,11063,103155,125784
2025-05-22 19:29:17.349,129601,19092,11070,103152,125770
2025-05-22 19:29:17.362,129600,19093,11065,103144,125764
2025-05-22 19:29:17.370,129589,19098,11073,103139,125763
2025-05-22 19:29:17.389,129576,19088,11071,103137,125760
2025-05-22 19:29:17.390,129569,19102,11071,103128,125748
2025-05-22 19:29:17.402,129575,19098,11079,103108,125750
2025-05-22 19:29:17.409,129570,19101,11086,103117,125746
2025-05-22 19:29:17.422,129569,19097,11079,103111,125734
2025-05-22 19:29:17.429,129572,19106,11080,103116,125718
2025-05-22 19:29:17.454,129562,19109,11090,103106,125713
2025-05-22 19:29:17.455,129575,19110,11088,103099,125723
2025-05-22 19:29:17.462,129567,19115,11091,103111,125738
2025-05-22 19:29:17.469,129573,19121,11099,103088,125736
2025-05-22 19:29:17.482,129600,19124,11096,103109,125730
2025-05-22 19:29:17.490,129593,19131,11099,103121,125734
2025-05-22 19:29:17.501,129594,19130,11107,103123,125757
2025-05-22 19:29:17.518,129605,19131,11102,103134,125766
2025-05-22 19:29:17.521,129630,19142,11108,103133,125766
2025-05-22 19:29:17.530,129635,19151,11112,103148,125772
2025-05-22 19:29:17.541,129625,19154,11111,103140,125776
2025-05-22 19:29:17.549,129633,19156,11114,103155,125795
2025-05-22 19:29:17.562,129645,19165,11125,103145,125782
2025-05-22 19:29:17.583,129649,19170,11129,103154,125789
2025-05-22 19:29:17.585,129655,19176,11133,103151,125808
2025-05-22 19:29:17.590,129638,19179,11129,103164,125797
2025-05-22 19:29:17.601,129665,19183,11130,103168,125787
2025-05-22 19:29:17.610,129648,19186,11136,103168,125792
2025-05-22 19:29:17.621,129649,19181,11141,103171,125789
2025-05-22 19:29:17.630,129652,19189,11138,103158,125802
2025-05-22 19:29:17.649,129647,19190,11144,103167,125803
2025-05-22 19:29:17.653,129661,19200,11144,103167,125807
2025-05-22 19:29:17.662,129644,19196,11141,103145,125799
2025-05-22 19:29:17.674,129651,19209,11143,103142,125787
2025-05-22 19:29:17.682,129652,19216,11154,103140,125779
2025-05-22 19:29:17.693,129666,19217,11156,103150,125802
2025-05-22 19:29:17.714,129667,19221,11155,103161,125803
2025-05-22 19:29:17.715,129695,19231,11167,103180,125813
2025-05-22 19:29:17.721,129706,19229,11163,103165,125802
2025-05-22 19:29:17.733,129711,19232,11170,103179,125812
2025-05-22 19:29:17.741,129720,19247,11174,103184,125822
2025-05-22 19:29:17.753,129730,19253,11173,103177,125834
2025-05-22 19:29:17.762,129737,19253,11176,103182,125833
2025-05-22 19:29:17.780,129752,19261,11180,103186,125838
2025-05-22 19:29:17.782,129772,19263,11180,103202,125860
2025-05-22 19:29:17.793,129794,19269,11180,103211,125866
2025-05-22 19:29:17.802,129820,19272,11190,103214,125861
2025-05-22 19:29:17.814,129846,19266,11184,103235,125874
2025-05-22 19:29:17.821,129891,19274,11184,103239,125896
2025-05-22 19:29:17.848,129945,19267,11182,103278,125897
2025-05-22 19:29:17.850,129982,19267,11186,103308,125929
2025-05-22 19:29:17.854,130003,19254,11165,103314,125941
2025-05-22 19:29:17.862,130001,19250,11155,103344,125961
2025-05-22 19:29:17.874,129995,19240,11155,103339,125950
2025-05-22 19:29:17.882,129979,19215,11139,103349,125938
2025-05-22 19:29:17.894,129951,19209,11132,103334,125946
2025-05-22 19:29:17.921,129926,19183,11123,103324,125916
2025-05-22 19:29:17.923,129896,19165,11113,103314,125906
2025-05-22 19:29:17.925,129896,19165,11113,103314,125906
2025-05-22 19:29:17.926,129815,19134,11084,103257,125856
2025-05-22 19:29:17.934,129786,19112,11078,103248,125841
2025-05-22 19:29:17.946,129762,19100,11065,103231,125796
2025-05-22 19:29:17.954,129717,19089,11066,103193,125772
2025-05-22 19:29:17.966,129686,19071,11057,103183,125757
2025-05-22 19:29:17.991,129652,19056,11048,103163,125729
2025-05-22 19:29:17.992,129625,19047,11046,103132,125708
2025-05-22 19:29:17.994,129597,19036,11047,103116,125672
2025-05-22 19:29:18.006,129562,19031,11041,103097,125663
2025-05-22 19:29:18.013,129539,19025,11043,103092,125641
2025-05-22 19:29:18.026,129508,19018,11034,103068,125634
2025-05-22 19:29:18.033,129493,19015,11045,103048,125605
2025-05-22 19:29:18.057,129478,19005,11034,103031,125594
2025-05-22 19:29:18.059,129465,19010,11041,103019,125570
2025-05-22 19:29:18.066,129440,19002,11035,103009,125562
2025-05-22 19:29:18.074,129436,19006,11038,102998,125564
2025-05-22 19:29:18.086,129423,19006,11032,102995,125565
2025-05-22 19:29:18.094,129440,19000,11035,102974,125546
2025-05-22 19:29:18.105,129435,18999,11038,102968,125546
2025-05-22 19:29:18.122,129450,18994,11033,102975,125544
2025-05-22 19:29:18.125,129455,18999,11035,102979,125546
2025-05-22 19:29:18.134,129469,18988,11025,102974,125541
2025-05-22 19:29:18.145,129474,18993,11028,102989,125536
2025-05-22 19:29:18.154,129469,18989,11030,102980,125551
2025-05-22 19:29:18.165,129463,18984,11031,102968,125546
2025-05-22 19:29:18.186,129464,18981,11028,102985,125549
2025-05-22 19:29:18.188,129455,18984,11019,102964,125532
2025-05-22 19:29:18.193,129455,18972,11021,102986,125548
2025-05-22 19:29:18.205,129461,18975,11020,102984,125521
2025-05-22 19:29:18.213,129441,18968,11017,102969,125545
2025-05-22 19:29:18.225,129439,18972,11019,102975,125514
2025-05-22 19:29:18.253,129425,18955,11019,102975,125513
2025-05-22 19:29:18.254,129424,18959,11013,102955,125519
2025-05-22 19:29:18.258,129412,18950,11017,102949,125504
2025-05-22 19:29:18.266,129397,18962,11016,102945,125508
2025-05-22 19:29:18.277,129383,18949,11023,102942,125485
2025-05-22 19:29:18.286,129378,18955,11017,102928,125482
2025-05-22 19:29:18.298,129368,18957,11017,102920,125465
2025-05-22 19:29:18.319,129363,18955,11020,102909,125463
2025-05-22 19:29:18.320,129346,18955,11024,102910,125453
2025-05-22 19:29:18.325,129343,18958,11024,102896,125455
2025-05-22 19:29:18.337,129336,18955,11023,102894,125474
2025-05-22 19:29:18.346,129324,18957,11019,102891,125455
2025-05-22 19:29:18.358,129308,18967,11034,102884,125452
2025-05-22 19:29:18.366,129310,18966,11034,102874,125424
2025-05-22 19:29:18.387,129297,18969,11033,102872,125428
2025-05-22 19:29:18.389,129292,18959,11038,102869,125414
2025-05-22 19:29:18.398,129275,18966,11035,102851,125403
2025-05-22 19:29:18.406,129264,18967,11036,102845,125411
2025-05-22 19:29:18.418,129251,18966,11043,102828,125399
2025-05-22 19:29:18.426,129252,18979,11041,102834,125379
2025-05-22 19:29:18.465,129257,18972,11046,102817,125367
2025-05-22 19:29:18.467,129245,18982,11049,102841,125376
2025-05-22 19:29:18.469,129244,18978,11046,102817,125371
2025-05-22 19:29:18.471,129269,18986,11047,102812,125389
2025-05-22 19:29:18.477,129259,18988,11052,102810,125383
2025-05-22 19:29:18.486,129256,18993,11054,102819,125386
2025-05-22 19:29:18.498,129273,18991,11064,102829,125382
2025-05-22 19:29:18.510,129280,19001,11061,102817,125386
2025-05-22 19:29:18.541,129297,19002,11058,102840,125388
2025-05-22 19:29:18.544,129297,19000,11062,102844,125401
2025-05-22 19:29:18.546,129313,19006,11065,102850,125405
2025-05-22 19:29:18.550,129315,19008,11066,102841,125413
2025-05-22 19:29:18.558,129319,19017,11068,102848,125430
2025-05-22 19:29:18.569,129313,19022,11070,102865,125416
2025-05-22 19:29:18.578,129324,19023,11074,102868,125427
2025-05-22 19:29:18.612,129333,19033,11082,102861,125437
2025-05-22 19:29:18.614,129326,19040,11083,102872,125423
2025-05-22 19:29:18.615,129337,19037,11084,102856,125437
2025-05-22 19:29:18.617,129349,19044,11085,102882,125425
2025-05-22 19:29:18.630,129359,19047,11080,102881,125448
2025-05-22 19:29:18.637,129340,19057,11086,102878,125442
2025-05-22 19:29:18.650,129349,19057,11093,102875,125444
2025-05-22 19:29:18.657,129366,19060,11099,102896,125449
2025-05-22 19:29:18.677,129353,19060,11099,102893,125467
2025-05-22 19:29:18.679,129364,19067,11101,102891,125456
2025-05-22 19:29:18.690,129368,19071,11105,102900,125467
2025-05-22 19:29:18.697,129354,19078,11106,102906,125468
2025-05-22 19:29:18.710,129355,19084,11110,102897,125453
2025-05-22 19:29:18.717,129342,19089,11119,102904,125467
2025-05-22 19:29:18.744,129368,19093,11123,102894,125466
2025-05-22 19:29:18.745,129370,19096,11114,102904,125470
2025-05-22 19:29:18.749,129383,19102,11119,102895,125474
2025-05-22 19:29:18.757,129406,19091,11121,102914,125486
2025-05-22 19:29:18.769,129427,19109,11122,102902,125481
2025-05-22 19:29:18.777,129451,19094,11116,102934,125493
2025-05-22 19:29:18.788,129462,19091,11106,102931,125490
2025-05-22 19:29:18.808,129469,19086,11106,102946,125493
2025-05-22 19:29:18.809,129459,19079,11088,102945,125517
2025-05-22 19:29:18.821,129448,19064,11087,102943,125508
2025-05-22 19:29:18.829,129417,19048,11082,102959,125494
2025-05-22 19:29:18.842,129394,19028,11066,102936,125481
2025-05-22 19:29:18.849,129358,19009,11054,102921,125438
2025-05-22 19:29:18.873,129313,18991,11046,102898,125437
2025-05-22 19:29:18.874,129277,18970,11044,102869,125401
2025-05-22 19:29:18.881,129243,18958,11027,102841,125390
2025-05-22 19:29:18.890,129210,18934,11023,102818,125347
2025-05-22 19:29:18.901,129162,18924,11016,102797,125321
2025-05-22 19:29:18.909,129121,18909,11011,102761,125293
2025-05-22 19:29:18.922,129085,18880,11002,102747,125256
2025-05-22 19:29:18.940,129068,18880,10997,102714,125243
2025-05-22 19:29:18.941,129041,18868,10996,102703,125196
2025-05-22 19:29:18.950,129012,18860,10990,102676,125190
2025-05-22 19:29:18.962,128991,18853,10995,102662,125167
2025-05-22 19:29:18.970,128954,18851,10985,102649,125150
2025-05-22 19:29:18.982,128956,18843,10986,102629,125143
2025-05-22 19:29:19.006,128920,18840,10988,102617,125138
2025-05-22 19:29:19.007,128925,18839,10977,102602,125103
2025-05-22 19:29:19.009,128932,18828,10982,102584,125111
2025-05-22 19:29:19.021,128933,18828,10984,102592,125106
2025-05-22 19:29:19.030,128944,18836,10983,102584,125100
2025-05-22 19:29:19.042,128964,18835,10983,102603,125111
2025-05-22 19:29:19.049,128955,18830,10985,102604,125107
2025-05-22 19:29:19.070,128966,18834,10982,102597,125117
2025-05-22 19:29:19.072,128977,18837,10995,102598,125127
2025-05-22 19:29:19.082,128972,18834,10986,102597,125113
2025-05-22 19:29:19.089,128983,18840,10985,102609,125113
2025-05-22 19:29:19.101,128984,18829,10985,102604,125117
2025-05-22 19:29:19.114,128992,18832,10988,102605,125125
2025-05-22 19:29:19.139,128986,18821,10983,102587,125102
2025-05-22 19:29:19.140,128986,18821,10983,102587,125102
2025-05-22 19:29:19.141,128949,18816,10974,102575,125081
2025-05-22 19:29:19.143,128929,18821,10974,102574,125083
2025-05-22 19:29:19.153,128931,18804,10968,102577,125074
2025-05-22 19:29:19.161,128894,18803,10972,102553,125052
2025-05-22 19:29:19.174,128882,18790,10965,102542,125047
2025-05-22 19:29:19.181,128873,18776,10962,102529,125036
2025-05-22 19:29:19.206,128880,18788,10963,102539,125022
2025-05-22 19:29:19.207,128870,18784,10971,102513,125022
2025-05-22 19:29:19.213,128865,18778,10966,102505,125019
2025-05-22 19:29:19.221,128867,18794,10969,102504,125009
2025-05-22 19:29:19.234,128865,18783,10969,102506,125003
2025-05-22 19:29:19.242,128881,18782,10967,102496,124994
2025-05-22 19:29:19.253,128874,18782,10974,102508,125004
2025-05-22 19:29:19.271,128875,18785,10975,102509,125010
2025-05-22 19:29:19.274,128871,18783,10977,102508,125024
2025-05-22 19:29:19.281,128876,18782,10978,102513,125007
2025-05-22 19:29:19.294,128894,18795,10983,102508,125009
2025-05-22 19:29:19.301,128881,18798,10980,102511,125003
2025-05-22 19:29:19.313,128868,18797,10987,102513,125022
2025-05-22 19:29:19.336,128893,18804,10987,102516,125023
2025-05-22 19:29:19.337,128897,18800,10994,102525,125025
2025-05-22 19:29:19.341,128906,18813,10995,102534,125041
2025-05-22 19:29:19.353,128906,18814,10995,102540,125036
2025-05-22 19:29:19.361,128912,18822,11004,102537,125051
2025-05-22 19:29:19.373,128910,18828,11001,102542,125055
2025-05-22 19:29:19.404,128942,18833,11010,102544,125047
2025-05-22 19:29:19.406,128949,18836,11010,102554,125065
2025-05-22 19:29:19.408,128941,18841,11014,102557,125080
2025-05-22 19:29:19.414,128948,18848,11020,102566,125081
2025-05-22 19:29:19.426,128952,18850,11023,102566,125083
2025-05-22 19:29:19.433,128941,18856,11020,102576,125078
2025-05-22 19:29:19.446,128955,18859,11022,102567,125074
2025-05-22 19:29:19.453,128940,18863,11025,102580,125088
2025-05-22 19:29:19.473,128939,18865,11026,102562,125069
2025-05-22 19:29:19.474,128926,18867,11046,102570,125076
2025-05-22 19:29:19.485,128927,18871,11040,102543,125066
2025-05-22 19:29:19.493,128930,18876,11041,102550,125076
2025-05-22 19:29:19.505,128941,18885,11038,102549,125070
2025-05-22 19:29:19.514,128924,18885,11044,102558,125061
2025-05-22 19:29:19.538,128930,18885,11042,102558,125061
2025-05-22 19:29:19.539,128927,18886,11048,102548,125072
2025-05-22 19:29:19.544,128919,18900,11057,102555,125066
2025-05-22 19:29:19.553,128945,18898,11059,102555,125070
2025-05-22 19:29:19.566,128954,18897,11062,102552,125075
2025-05-22 19:29:19.573,128953,18913,11059,102566,125103
2025-05-22 19:29:19.585,128966,18913,11067,102575,125090
2025-05-22 19:29:19.602,128982,18919,11068,102588,125113
2025-05-22 19:29:19.605,129001,18924,11068,102595,125121
2025-05-22 19:29:19.613,129018,18918,11073,102607,125113
2025-05-22 19:29:19.625,129015,18943,11079,102597,125141
2025-05-22 19:29:19.633,129024,18946,11086,102624,125142
2025-05-22 19:29:19.646,129044,18943,11080,102621,125151
2025-05-22 19:29:19.671,129040,18951,11090,102650,125167
2025-05-22 19:29:19.672,129074,18955,11084,102647,125159
2025-05-22 19:29:19.674,129114,18955,11084,102675,125179
2025-05-22 19:29:19.685,129137,18956,11086,102694,125200
2025-05-22 19:29:19.693,129158,18949,11080,102707,125230
2025-05-22 19:29:19.706,129173,18945,11074,102727,125231
2025-05-22 19:29:19.718,129160,18936,11068,102737,125238
2025-05-22 19:29:19.741,129165,18925,11061,102728,125228
2025-05-22 19:29:19.743,129117,18905,11056,102727,125222
2025-05-22 19:29:19.745,129103,18901,11049,102717,125218
2025-05-22 19:29:19.757,129062,18875,11036,102698,125173
2025-05-22 19:29:19.765,129019,18850,11023,102670,125161
2025-05-22 19:29:19.777,128982,18831,11015,102654,125132
2025-05-22 19:29:19.786,128952,18817,11007,102620,125095
2025-05-22 19:29:19.808,128897,18795,10995,102602,125074
2025-05-22 19:29:19.810,128875,18782,10987,102582,125041
2025-05-22 19:29:19.817,128830,18771,10976,102551,125003
2025-05-22 19:29:19.826,128792,18754,10976,102513,124980
2025-05-22 19:29:19.838,128755,18735,10972,102500,124980
2025-05-22 19:29:19.846,128743,18727,10964,102485,124930
2025-05-22 19:29:19.857,128713,18729,10967,102465,124920
2025-05-22 19:29:19.877,128676,18713,10968,102446,124909
2025-05-22 19:29:19.879,128659,18709,10960,102434,124886
2025-05-22 19:29:19.885,128645,18710,10959,102409,124886
2025-05-22 19:29:19.897,128610,18698,10964,102391,124864
2025-05-22 19:29:19.906,128624,18699,10963,102368,124844
2025-05-22 19:29:19.917,128605,18703,10964,102358,124815
2025-05-22 19:29:19.926,128594,18693,10967,102361,124828
2025-05-22 19:29:19.943,128602,18696,10963,102335,124816
2025-05-22 19:29:19.945,128584,18695,10959,102343,124809
2025-05-22 19:29:19.956,128573,18695,10964,102338,124794
2025-05-22 19:29:19.965,128585,18692,10969,102329,124785
2025-05-22 19:29:19.978,128588,18696,10964,102310,124788
2025-05-22 19:29:19.989,128593,18689,10966,102311,124781
2025-05-22 19:29:20.009,128585,18688,10962,102318,124769
2025-05-22 19:29:20.010,128609,18686,10962,102308,124784
2025-05-22 19:29:20.018,128601,18683,10953,102320,124773
2025-05-22 19:29:20.028,128612,18682,10959,102316,124777
2025-05-22 19:29:20.038,128586,18662,10961,102315,124753
2025-05-22 19:29:20.049,128590,18664,10954,102303,124769
2025-05-22 19:29:20.057,128575,18663,10953,102292,124768
2025-05-22 19:29:20.075,128562,18658,10957,102292,124741
2025-05-22 19:29:20.078,128573,18658,10945,102289,124747
2025-05-22 19:29:20.089,128556,18655,10951,102282,124743
2025-05-22 19:29:20.097,128550,18651,10944,102281,124730
2025-05-22 19:29:20.110,128553,18659,10946,102280,124744
2025-05-22 19:29:20.117,128557,18650,10953,102268,124738
2025-05-22 19:29:20.141,128548,18656,10951,102257,124729
2025-05-22 19:29:20.142,128526,18660,10952,102258,124713
2025-05-22 19:29:20.150,128518,18661,10955,102251,124710
2025-05-22 19:29:20.157,128498,18660,10965,102257,124711
2025-05-22 19:29:20.169,128485,18660,10967,102243,124691
2025-05-22 19:29:20.177,128476,18665,10970,102252,124700
2025-05-22 19:29:20.190,128479,18664,10968,102236,124689
2025-05-22 19:29:20.207,128463,18663,10968,102226,124683
2025-05-22 19:29:20.209,128436,18670,10980,102210,124666
2025-05-22 19:29:20.217,128423,18666,10968,102215,124660
2025-05-22 19:29:20.229,128408,18680,10979,102196,124658
2025-05-22 19:29:20.238,128391,18677,10974,102202,124648
2025-05-22 19:29:20.249,128382,18679,10973,102188,124654
2025-05-22 19:29:20.274,128367,18677,10982,102175,124629
2025-05-22 19:29:20.276,128370,18685,10985,102186,124634
2025-05-22 19:29:20.282,128364,18680,10984,102174,124647
2025-05-22 19:29:20.289,128359,18694,10986,102193,124640
2025-05-22 19:29:20.301,128374,18691,10990,102196,124671
2025-05-22 19:29:20.309,128383,18697,10998,102221,124667
2025-05-22 19:29:20.322,128424,18705,10998,102222,124681
2025-05-22 19:29:20.341,128436,18711,11004,102232,124693
2025-05-22 19:29:20.342,128436,18711,11004,102232,124693
2025-05-22 19:29:20.343,128482,18731,11010,102281,124726
2025-05-22 19:29:20.349,128500,18725,11011,102278,124751
2025-05-22 19:29:20.361,128499,18743,11016,102285,124755
2025-05-22 19:29:20.369,128516,18741,11021,102310,124760
2025-05-22 19:29:20.381,128528,18756,11022,102314,124782
2025-05-22 19:29:20.389,128543,18760,11019,102323,124814
2025-05-22 19:29:20.406,128572,18776,11031,102335,124804
2025-05-22 19:29:20.409,128574,18771,11034,102363,124813
2025-05-22 19:29:20.421,128590,18777,11039,102367,124844
2025-05-22 19:29:20.429,128583,18793,11052,102384,124845
2025-05-22 19:29:20.441,128591,18799,11040,102388,124847
2025-05-22 19:29:20.450,128598,18798,11055,102396,124858
2025-05-22 19:29:20.472,128589,18813,11060,102407,124874
2025-05-22 19:29:20.473,128575,18812,11053,102396,124866
2025-05-22 19:29:20.482,128573,18822,11065,102407,124857
2025-05-22 19:29:20.489,128547,18828,11067,102398,124846
2025-05-22 19:29:20.502,128525,18828,11071,102384,124844
2025-05-22 19:29:20.509,128507,18828,11071,102374,124824
2025-05-22 19:29:20.521,128482,18837,11078,102368,124808
2025-05-22 19:29:20.539,128500,18837,11082,102361,124819
2025-05-22 19:29:20.542,128483,18844,11085,102358,124802
2025-05-22 19:29:20.550,128495,18841,11080,102349,124830
2025-05-22 19:29:20.561,128519,18846,11087,102356,124816
2025-05-22 19:29:20.574,128520,18843,11081,102361,124827
2025-05-22 19:29:20.581,128542,18846,11085,102366,124839
2025-05-22 19:29:20.606,128577,18836,11083,102391,124865
2025-05-22 19:29:20.608,128624,18846,11080,102405,124877
2025-05-22 19:29:20.614,128653,18839,11076,102423,124898
2025-05-22 19:29:20.621,128676,18831,11065,102435,124903
2025-05-22 19:29:20.633,128701,18821,11063,102482,124932
2025-05-22 19:29:20.641,128712,18817,11061,102481,124932
2025-05-22 19:29:20.653,128704,18806,11044,102496,124947
2025-05-22 19:29:20.671,128702,18778,11029,102488,124931
2025-05-22 19:29:20.674,128662,18771,11021,102501,124933
2025-05-22 19:29:20.682,128649,18755,11018,102482,124902
2025-05-22 19:29:20.693,128604,18733,11004,102479,124894
2025-05-22 19:29:20.701,128564,18710,10997,102457,124859
2025-05-22 19:29:20.713,128522,18686,10993,102427,124839
2025-05-22 19:29:20.736,128484,18685,10980,102406,124810
2025-05-22 19:29:20.738,128441,18673,10978,102391,124793
2025-05-22 19:29:20.741,128426,18668,10975,102362,124769
2025-05-22 19:29:20.753,128385,18657,10968,102342,124758
2025-05-22 19:29:20.761,128371,18629,10966,102318,124708
2025-05-22 19:29:20.774,128338,18637,10955,102292,124714
2025-05-22 19:29:20.781,128305,18624,10963,102269,124696
2025-05-22 19:29:20.804,128285,18615,10956,102257,124666
2025-05-22 19:29:20.805,128267,18613,10960,102256,124667
2025-05-22 19:29:20.814,128250,18598,10960,102205,124619
2025-05-22 19:29:20.821,128236,18595,10963,102204,124609
2025-05-22 19:29:20.833,128206,18589,10960,102184,124590
2025-05-22 19:29:20.845,128188,18579,10957,102170,124582
2025-05-22 19:29:20.870,128183,18599,10959,102155,124556
2025-05-22 19:29:20.871,128173,18586,10957,102149,124545
2025-05-22 19:29:20.873,128183,18595,10964,102136,124529
2025-05-22 19:29:20.886,128159,18591,10967,102110,124539
2025-05-22 19:29:20.893,128165,18583,10957,102116,124519
2025-05-22 19:29:20.905,128137,18600,10963,102097,124502
2025-05-22 19:29:20.913,128133,18588,10957,102077,124500
2025-05-22 19:29:20.936,128114,18596,10955,102075,124462
2025-05-22 19:29:20.937,128096,18577,10966,102059,124461
2025-05-22 19:29:20.945,128072,18572,10944,102042,124447
2025-05-22 19:29:20.953,128055,18562,10951,102029,124406
2025-05-22 19:29:20.965,128045,18558,10949,102004,124421
2025-05-22 19:29:20.973,128023,18554,10951,101992,124390
2025-05-22 19:29:21.001,128026,18552,10940,101978,124386
2025-05-22 19:29:21.002,127991,18545,10954,101967,124360
2025-05-22 19:29:21.004,127991,18544,10946,101953,124375
2025-05-22 19:29:21.013,127974,18529,10958,101932,124348
2025-05-22 19:29:21.025,127978,18542,10939,101925,124346
2025-05-22 19:29:21.033,127957,18534,10940,101923,124327
2025-05-22 19:29:21.045,127959,18541,10947,101915,124321
2025-05-22 19:29:21.066,127950,18532,10930,101903,124318
2025-05-22 19:29:21.068,127953,18538,10940,101908,124312
2025-05-22 19:29:21.073,127942,18537,10939,101890,124302
2025-05-22 19:29:21.085,127938,18539,10935,101887,124311
2025-05-22 19:29:21.093,127929,18540,10949,101880,124313
2025-05-22 19:29:21.105,127943,18548,10938,101888,124311
2025-05-22 19:29:21.113,127949,18554,10961,101878,124308
2025-05-22 19:29:21.132,127952,18561,10965,101874,124318
2025-05-22 19:29:21.137,127929,18560,10964,101875,124302
2025-05-22 19:29:21.145,127918,18561,10976,101867,124311
2025-05-22 19:29:21.157,127907,18569,10972,101874,124298
2025-05-22 19:29:21.165,127900,18566,10992,101861,124282
2025-05-22 19:29:21.176,127890,18570,10973,101858,124305
2025-05-22 19:29:21.198,127894,18576,10987,101845,124289
2025-05-22 19:29:21.199,127901,18572,10984,101849,124290
2025-05-22 19:29:21.205,127899,18580,10988,101855,124277
2025-05-22 19:29:21.217,127898,18588,10989,101844,124272
2025-05-22 19:29:21.224,127889,18589,10997,101839,124280
2025-05-22 19:29:21.237,127890,18594,10992,101827,124283
2025-05-22 19:29:21.244,127900,18598,10997,101825,124285
2025-05-22 19:29:21.263,127896,18601,10997,101830,124271
2025-05-22 19:29:21.265,127919,18605,11006,101842,124289
2025-05-22 19:29:21.278,127920,18603,11002,101832,124266
2025-05-22 19:29:21.285,127942,18617,11009,101829,124283
2025-05-22 19:29:21.296,127948,18612,11016,101853,124286
2025-05-22 19:29:21.305,127964,18622,11014,101839,124297
2025-05-22 19:29:21.328,127969,18621,11018,101844,124308
2025-05-22 19:29:21.330,127984,18637,11025,101869,124308
2025-05-22 19:29:21.336,127989,18635,11019,101873,124316
2025-05-22 19:29:21.345,128016,18642,11021,101884,124324
2025-05-22 19:29:21.357,128019,18657,11030,101894,124340
2025-05-22 19:29:21.365,128031,18658,11032,101901,124360
2025-05-22 19:29:21.377,128047,18661,11031,101916,124371
2025-05-22 19:29:21.396,128035,18675,11042,101919,124369
2025-05-22 19:29:21.397,128030,18677,11046,101934,124373
2025-05-22 19:29:21.409,128048,18682,11056,101942,124400
2025-05-22 19:29:21.418,128061,18687,11054,101935,124388
2025-05-22 19:29:21.429,128077,18697,11059,101946,124411
2025-05-22 19:29:21.437,128067,18698,11063,101958,124425
2025-05-22 19:29:21.465,128077,18708,11065,101945,124401
2025-05-22 19:29:21.467,128060,18710,11069,101950,124406
2025-05-22 19:29:21.469,128068,18721,11068,101948,124417
2025-05-22 19:29:21.477,128067,18721,11076,101954,124398
2025-05-22 19:29:21.489,128060,18726,11077,101949,124405
2025-05-22 19:29:21.498,128078,18726,11088,101943,124388
2025-05-22 19:29:21.508,128072,18739,11082,101950,124417
2025-05-22 19:29:21.532,128084,18736,11086,101937,124409
2025-05-22 19:29:21.534,128103,18742,11084,101954,124414
2025-05-22 19:29:21.542,128142,18742,11084,101963,124438
2025-05-22 19:29:21.543,128142,18742,11084,101963,124438
2025-05-22 19:29:21.549,128202,18744,11082,102015,124482
2025-05-22 19:29:21.557,128222,18735,11084,102027,124493
2025-05-22 19:29:21.568,128228,18728,11069,102041,124513
2025-05-22 19:29:21.578,128203,18718,11056,102044,124523
2025-05-22 19:29:21.601,128213,18714,11056,102044,124509
2025-05-22 19:29:21.602,128187,18695,11050,102039,124500
2025-05-22 19:29:21.608,128165,18678,11046,102044,124497
2025-05-22 19:29:21.617,128145,18664,11031,102027,124479
2025-05-22 19:29:21.629,128106,18641,11024,102021,124447
2025-05-22 19:29:21.637,128074,18634,11022,101981,124411
2025-05-22 19:29:21.648,128021,18612,11023,101973,124387
2025-05-22 19:29:21.667,128001,18600,11004,101942,124334
2025-05-22 19:29:21.669,127975,18590,11000,101941,124337
2025-05-22 19:29:21.677,127950,18574,10993,101903,124299
2025-05-22 19:29:21.688,127933,18569,10991,101888,124313
2025-05-22 19:29:21.697,127909,18560,10992,101857,124272
2025-05-22 19:29:21.709,127895,18552,10991,101844,124274
2025-05-22 19:29:21.733,127881,18551,10988,101829,124254
2025-05-22 19:29:21.734,127874,18543,10992,101810,124232
2025-05-22 19:29:21.741,127859,18548,10993,101805,124228
2025-05-22 19:29:21.750,127868,18543,10992,101795,124205
2025-05-22 19:29:21.762,127877,18549,10990,101800,124215
2025-05-22 19:29:21.769,127881,18554,10998,101794,124215
2025-05-22 19:29:21.781,127895,18552,10995,101795,124205
2025-05-22 19:29:21.801,127909,18553,10993,101810,124237
2025-05-22 19:29:21.803,127927,18558,11000,101800,124230
2025-05-22 19:29:21.810,127925,18560,10999,101822,124233
2025-05-22 19:29:21.821,127938,18555,11005,101831,124253
2025-05-22 19:29:21.829,127946,18566,11006,101819,124244
2025-05-22 19:29:21.841,127960,18560,10999,101835,124254
2025-05-22 19:29:21.849,127957,18565,11002,101839,124270
2025-05-22 19:29:21.871,127966,18568,11005,101847,124266
2025-05-22 19:29:21.872,127968,18559,11003,101851,124277
2025-05-22 19:29:21.882,127951,18563,11007,101845,124262
2025-05-22 19:29:21.889,127953,18564,11004,101850,124264
2025-05-22 19:29:21.901,127938,18561,11000,101846,124267
2025-05-22 19:29:21.909,127926,18562,11000,101842,124256
2025-05-22 19:29:21.936,127923,18544,10998,101836,124238
2025-05-22 19:29:21.938,127921,18554,11002,101843,124247
2025-05-22 19:29:21.941,127915,18555,11002,101833,124245
2025-05-22 19:29:21.949,127915,18552,11004,101827,124250
2025-05-22 19:29:21.960,127902,18546,11006,101817,124236
2025-05-22 19:29:21.972,127916,18554,11011,101812,124216
2025-05-22 19:29:21.981,127896,18550,11004,101817,124237
2025-05-22 19:29:22.001,127890,18551,11004,101818,124234
2025-05-22 19:29:22.003,127881,18561,11006,101821,124214
2025-05-22 19:29:22.012,127886,18562,11007,101809,124214
2025-05-22 19:29:22.020,127858,18565,11011,101801,124204
2025-05-22 19:29:22.033,127869,18563,11013,101793,124216
2025-05-22 19:29:22.040,127862,18577,11013,101789,124214
2025-05-22 19:29:22.067,127858,18578,11021,101784,124212
2025-05-22 19:29:22.068,127857,18580,11017,101778,124192
2025-05-22 19:29:22.073,127835,18575,11030,101774,124193
2025-05-22 19:29:22.081,127839,18591,11027,101762,124188
2025-05-22 19:29:22.093,127813,18587,11034,101760,124185
2025-05-22 19:29:22.100,127830,18598,11032,101759,124159
2025-05-22 19:29:22.113,127829,18591,11033,101765,124169
2025-05-22 19:29:22.134,127843,18598,11040,101755,124163
2025-05-22 19:29:22.135,127836,18594,11043,101749,124190
2025-05-22 19:29:22.141,127849,18603,11047,101765,124181
2025-05-22 19:29:22.153,127859,18604,11043,101779,124190
2025-05-22 19:29:22.160,127881,18615,11047,101775,124200
2025-05-22 19:29:22.173,127900,18613,11049,101788,124209
2025-05-22 19:29:22.181,127898,18627,11048,101798,124216
2025-05-22 19:29:22.199,127936,18636,11054,101822,124222
2025-05-22 19:29:22.201,127957,18638,11062,101831,124262
2025-05-22 19:29:22.213,127977,18646,11060,101846,124281
2025-05-22 19:29:22.220,127984,18647,11069,101858,124288
2025-05-22 19:29:22.233,127999,18663,11064,101880,124319
2025-05-22 19:29:22.240,128011,18662,11078,101895,124332
2025-05-22 19:29:22.266,128011,18674,11078,101912,124342
2025-05-22 19:29:22.267,128035,18685,11077,101917,124354
2025-05-22 19:29:22.272,128034,18683,11081,101924,124360
2025-05-22 19:29:22.285,128030,18694,11085,101921,124373
2025-05-22 19:29:22.292,128038,18700,11087,101941,124375
2025-05-22 19:29:22.305,128057,18704,11093,101935,124376
2025-05-22 19:29:22.313,128055,18717,11090,101937,124379
2025-05-22 19:29:22.332,128039,18719,11100,101943,124379
2025-05-22 19:29:22.333,128040,18720,11104,101939,124385
2025-05-22 19:29:22.344,128039,18731,11107,101947,124377
2025-05-22 19:29:22.353,128045,18729,11112,101938,124378
2025-05-22 19:29:22.365,128044,18736,11111,101944,124382
2025-05-22 19:29:22.373,128053,18739,11109,101943,124372
2025-05-22 19:29:22.397,128061,18749,11124,101947,124390
2025-05-22 19:29:22.398,128046,18751,11116,101943,124396
2025-05-22 19:29:22.405,128067,18752,11121,101959,124387
2025-05-22 19:29:22.413,128078,18757,11122,101947,124396
2025-05-22 19:29:22.424,128097,18758,11120,101959,124409
2025-05-22 19:29:22.433,128121,18756,11117,101967,124417
2025-05-22 19:29:22.445,128131,18759,11118,101979,124432
2025-05-22 19:29:22.465,128149,18756,11109,102004,124450
2025-05-22 19:29:22.466,128157,18746,11110,102018,124453
2025-05-22 19:29:22.472,128163,18745,11105,102026,124451
2025-05-22 19:29:22.485,128167,18730,11096,102043,124455
2025-05-22 19:29:22.494,128150,18714,11085,102031,124447
2025-05-22 19:29:22.505,128133,18695,11080,102043,124434
2025-05-22 19:29:22.513,128107,18688,11065,102028,124437
2025-05-22 19:29:22.533,128076,18657,11059,102008,124422
2025-05-22 19:29:22.535,128042,18650,11049,101986,124396
2025-05-22 19:29:22.545,127996,18638,11044,101971,124367
2025-05-22 19:29:22.557,127968,18616,11037,101954,124347
2025-05-22 19:29:22.564,127930,18606,11029,101923,124324
2025-05-22 19:29:22.577,127918,18591,11026,101902,124305
2025-05-22 19:29:22.598,127890,18571,11025,101882,124264
2025-05-22 19:29:22.599,127871,18569,11024,101863,124257
2025-05-22 19:29:22.605,127873,18561,11012,101849,124235
2025-05-22 19:29:22.617,127852,18550,11012,101838,124224
2025-05-22 19:29:22.625,127822,18547,11010,101825,124225
2025-05-22 19:29:22.637,127842,18545,11011,101807,124200
2025-05-22 19:29:22.644,127798,18532,11005,101796,124179
2025-05-22 19:29:22.663,127806,18536,11007,101782,124172
2025-05-22 19:29:22.665,127804,18537,11002,101770,124168
2025-05-22 19:29:22.677,127808,18534,11001,101774,124160
2025-05-22 19:29:22.685,127812,18529,11006,101770,124164
2025-05-22 19:29:22.696,127826,18536,11008,101782,124158
2025-05-22 19:29:22.705,127844,18542,11006,101780,124173
2025-05-22 19:29:22.729,127872,18533,11011,101806,124190
2025-05-22 19:29:22.731,127883,18548,11000,101812,124202
2025-05-22 19:29:22.737,127905,18550,11015,101826,124234
2025-05-22 19:29:22.749,127933,18552,11008,101839,124243
2025-05-22 19:29:22.750,127933,18552,11008,101839,124243
2025-05-22 19:29:22.756,127944,18561,11019,101867,124274
2025-05-22 19:29:22.765,127969,18555,11006,101880,124264
2025-05-22 19:29:22.777,127979,18554,11014,101886,124270
2025-05-22 19:29:22.795,127989,18562,11011,101902,124299
2025-05-22 19:29:22.797,127987,18549,11009,101910,124290
2025-05-22 19:29:22.806,127991,18562,11009,101912,124298
2025-05-22 19:29:22.817,127972,18557,11008,101918,124308
2025-05-22 19:29:22.829,127979,18553,11014,101907,124288
2025-05-22 19:29:22.837,127957,18551,11010,101910,124299
2025-05-22 19:29:22.860,127944,18560,11014,101905,124275
2025-05-22 19:29:22.861,127933,18561,11014,101882,124278
2025-05-22 19:29:22.869,127906,18556,11012,101877,124256
2025-05-22 19:29:22.877,127896,18555,11010,101862,124236
2025-05-22 19:29:22.889,127899,18559,11016,101847,124248
2025-05-22 19:29:22.896,127888,18562,11019,101843,124237
2025-05-22 19:29:22.909,127895,18560,11020,101846,124225
2025-05-22 19:29:22.927,127896,18562,11019,101840,124215
2025-05-22 19:29:22.929,127886,18564,11016,101826,124222
2025-05-22 19:29:22.937,127897,18567,11032,101831,124215
2025-05-22 19:29:22.949,127890,18567,11023,101843,124221
2025-05-22 19:29:22.956,127906,18582,11023,101841,124208
2025-05-22 19:29:22.969,127881,18580,11030,101838,124205
2025-05-22 19:29:22.992,127897,18580,11031,101821,124211
2025-05-22 19:29:22.994,127904,18586,11033,101833,124223
2025-05-22 19:29:22.997,127917,18588,11029,101834,124217
2025-05-22 19:29:23.009,127937,18600,11042,101846,124229
2025-05-22 19:29:23.017,127932,18602,11037,101857,124241
2025-05-22 19:29:23.028,127968,18606,11047,101866,124253
2025-05-22 19:29:23.037,127959,18616,11044,101874,124266
2025-05-22 19:29:23.058,127995,18625,11052,101897,124290
2025-05-22 19:29:23.059,128000,18622,11056,101893,124287
2025-05-22 19:29:23.069,128016,18636,11050,101905,124307
2025-05-22 19:29:23.076,128045,18643,11052,101929,124318
2025-05-22 19:29:23.089,128050,18648,11063,101943,124332
2025-05-22 19:29:23.101,128067,18660,11074,101953,124330
2025-05-22 19:29:23.125,128084,18664,11069,101965,124364
2025-05-22 19:29:23.126,128098,18682,11077,101992,124368
2025-05-22 19:29:23.129,128118,18679,11079,101996,124395
2025-05-22 19:29:23.140,128122,18689,11079,102010,124387
2025-05-22 19:29:23.149,128128,18695,11084,102006,124398
2025-05-22 19:29:23.161,128128,18704,11081,102021,124408
2025-05-22 19:29:23.168,128132,18710,11096,102025,124419
2025-05-22 19:29:23.194,128134,18723,11096,102053,124437
2025-05-22 19:29:23.195,128160,18727,11098,102053,124424
2025-05-22 19:29:23.201,128142,18740,11098,102048,124453
2025-05-22 19:29:23.209,128145,18742,11105,102054,124452
2025-05-22 19:29:23.221,128148,18741,11111,102053,124450
2025-05-22 19:29:23.229,128153,18754,11117,102072,124452
2025-05-22 19:29:23.241,128145,18757,11115,102068,124467
2025-05-22 19:29:23.260,128147,18764,11124,102066,124466
2025-05-22 19:29:23.262,128160,18768,11128,102066,124458
2025-05-22 19:29:23.269,128154,18778,11125,102064,124483
2025-05-22 19:29:23.280,128161,18779,11134,102083,124476
2025-05-22 19:29:23.288,128176,18782,11141,102066,124463
2025-05-22 19:29:23.301,128168,18793,11140,102064,124475
2025-05-22 19:29:23.308,128176,18799,11145,102080,124468
2025-05-22 19:29:23.327,128176,18803,11146,102087,124486
2025-05-22 19:29:23.329,128210,18806,11145,102091,124490
2025-05-22 19:29:23.340,128217,18807,11141,102098,124481
2025-05-22 19:29:23.353,128242,18807,11137,102106,124526
2025-05-22 19:29:23.361,128256,18792,11132,102134,124527
2025-05-22 19:29:23.369,128274,18799,11125,102147,124525
2025-05-22 19:29:23.394,128272,18792,11128,102147,124547
2025-05-22 19:29:23.395,128287,18781,11121,102177,124556
2025-05-22 19:29:23.400,128277,18766,11106,102163,124572
2025-05-22 19:29:23.412,128276,18752,11094,102186,124577
2025-05-22 19:29:23.421,128263,18730,11087,102181,124546
2025-05-22 19:29:23.432,128249,18718,11071,102176,124531
2025-05-22 19:29:23.441,128226,18699,11073,102166,124535
2025-05-22 19:29:23.458,128211,18684,11057,102168,124505
2025-05-22 19:29:23.460,128175,18664,11048,102135,124490
2025-05-22 19:29:23.473,128148,18647,11041,102133,124485
2025-05-22 19:29:23.480,128118,18640,11037,102110,124459
2025-05-22 19:29:23.493,128090,18625,11027,102097,124449
2025-05-22 19:29:23.500,128056,18617,11025,102081,124416
2025-05-22 19:29:23.526,128034,18606,11020,102059,124395
2025-05-22 19:29:23.528,128020,18598,11012,102041,124364
2025-05-22 19:29:23.532,128000,18590,11008,102044,124366
2025-05-22 19:29:23.541,127982,18587,11009,102025,124339
2025-05-22 19:29:23.552,127962,18581,11012,102001,124330
2025-05-22 19:29:23.560,127948,18578,10996,101996,124319
2025-05-22 19:29:23.572,127936,18572,11001,101972,124308
2025-05-22 19:29:23.594,127931,18570,10996,101968,124308
2025-05-22 19:29:23.596,127960,18579,11007,101952,124292
2025-05-22 19:29:23.601,127939,18572,10999,101940,124293
2025-05-22 19:29:23.613,127952,18562,11005,101945,124277
2025-05-22 19:29:23.620,127959,18569,11003,101947,124291
2025-05-22 19:29:23.633,127959,18570,10996,101955,124278
2025-05-22 19:29:23.660,127992,18566,10999,101965,124290
2025-05-22 19:29:23.661,127979,18581,10995,101972,124301
2025-05-22 19:29:23.662,127978,18577,10998,101983,124299
2025-05-22 19:29:23.673,128006,18581,11002,101983,124330
2025-05-22 19:29:23.685,128013,18574,11000,101998,124326
2025-05-22 19:29:23.692,128015,18585,10998,101998,124330
2025-05-22 19:29:23.705,128014,18580,11002,102019,124341
2025-05-22 19:29:23.726,127993,18585,11001,102019,124345
2025-05-22 19:29:23.727,127999,18582,10993,102009,124319
2025-05-22 19:29:23.732,127985,18571,10992,101988,124313
2025-05-22 19:29:23.745,127968,18577,10992,101983,124312
2025-05-22 19:29:23.757,127964,18566,10991,101969,124297
2025-05-22 19:29:23.758,127964,18566,10991,101969,124297
2025-05-22 19:29:23.764,127940,18564,10984,101955,124278
2025-05-22 19:29:23.773,127937,18567,10990,101955,124281
2025-05-22 19:29:23.790,127926,18559,10988,101949,124260
2025-05-22 19:29:23.793,127915,18569,10986,101943,124264
2025-05-22 19:29:23.804,127908,18564,10988,101945,124264
2025-05-22 19:29:23.813,127906,18559,10986,101945,124255
2025-05-22 19:29:23.825,127904,18566,10988,101933,124276
2025-05-22 19:29:23.832,127925,18571,10991,101933,124273
2025-05-22 19:29:23.857,127940,18577,10986,101942,124274
2025-05-22 19:29:23.858,127955,18581,10994,101954,124284
2025-05-22 19:29:23.864,127963,18589,10997,101954,124302
2025-05-22 19:29:23.873,127948,18593,10995,101967,124309
2025-05-22 19:29:23.884,127963,18591,11007,101979,124314
2025-05-22 19:29:23.893,127968,18609,10999,101986,124315
2025-05-22 19:29:23.904,127983,18613,11009,101992,124349
2025-05-22 19:29:23.924,127976,18621,11010,102001,124324
2025-05-22 19:29:23.926,128003,18632,11020,101997,124343
2025-05-22 19:29:23.932,128002,18635,11017,102009,124334
2025-05-22 19:29:23.945,127991,18638,11030,102013,124356
2025-05-22 19:29:23.957,127996,18644,11025,102018,124356
2025-05-22 19:29:23.965,127981,18648,11023,102008,124338
2025-05-22 19:29:23.991,127957,18648,11031,102021,124350
2025-05-22 19:29:23.993,127962,18662,11034,102004,124352
2025-05-22 19:29:23.997,127960,18666,11032,102000,124343
2025-05-22 19:29:24.004,127956,18666,11038,101999,124334
2025-05-22 19:29:24.016,127954,18669,11037,102007,124331
2025-05-22 19:29:24.025,127946,18683,11038,102011,124336
2025-05-22 19:29:24.036,127948,18675,11044,102004,124347
2025-05-22 19:29:24.058,127941,18692,11049,102007,124342
2025-05-22 19:29:24.059,127937,18695,11049,102021,124339
2025-05-22 19:29:24.064,127953,18692,11053,102011,124347
2025-05-22 19:29:24.076,127951,18698,11051,102015,124349
2025-05-22 19:29:24.085,127977,18705,11052,102020,124370
2025-05-22 19:29:24.096,127981,18713,11061,102035,124362
2025-05-22 19:29:24.105,127993,18722,11061,102031,124377
2025-05-22 19:29:24.124,128012,18724,11075,102058,124393
2025-05-22 19:29:24.126,128032,18730,11070,102062,124408
2025-05-22 19:29:24.136,128045,18745,11067,102078,124423
2025-05-22 19:29:24.145,128062,18743,11083,102100,124440
2025-05-22 19:29:24.157,128063,18760,11082,102113,124447
2025-05-22 19:29:24.164,128094,18775,11090,102107,124466
2025-05-22 19:29:24.191,128097,18784,11088,102140,124480
2025-05-22 19:29:24.192,128111,18784,11090,102133,124492
2025-05-22 19:29:24.197,128119,18793,11101,102144,124504
2025-05-22 19:29:24.209,128128,18799,11103,102148,124505
2025-05-22 19:29:24.217,128121,18813,11109,102142,124498
2025-05-22 19:29:24.229,128138,18806,11104,102148,124496
2025-05-22 19:29:24.236,128135,18808,11103,102140,124500
2025-05-22 19:29:24.259,128129,18810,11111,102124,124492
2025-05-22 19:29:24.260,128149,18814,11113,102125,124492
2025-05-22 19:29:24.270,128167,18817,11106,102131,124501
2025-05-22 19:29:24.276,128186,18812,11107,102134,124501
2025-05-22 19:29:24.288,128222,18804,11095,102153,124502
2025-05-22 19:29:24.297,128220,18790,11091,102163,124523
2025-05-22 19:29:24.327,128229,18786,11084,102177,124535
2025-05-22 19:29:24.328,128224,18777,11074,102183,124517
2025-05-22 19:29:24.330,128209,18761,11060,102184,124534
2025-05-22 19:29:24.338,128209,18743,11050,102174,124526
2025-05-22 19:29:24.348,128182,18728,11046,102168,124517
2025-05-22 19:29:24.357,128167,18709,11029,102172,124483
2025-05-22 19:29:24.369,128144,18703,11029,102172,124483
2025-05-22 19:29:24.394,128126,18692,11012,102157,124475
2025-05-22 19:29:24.396,128105,18674,11010,102127,124452
2025-05-22 19:29:24.397,128089,18658,11005,102140,124432
2025-05-22 19:29:24.408,128076,18646,11002,102106,124416
2025-05-22 19:29:24.417,128060,18646,10994,102115,124410
2025-05-22 19:29:24.429,128060,18643,10998,102094,124413
2025-05-22 19:29:24.436,128047,18639,10987,102101,124399
2025-05-22 19:29:24.461,128058,18636,10985,102100,124398
2025-05-22 19:29:24.463,128047,18630,10985,102084,124390
2025-05-22 19:29:24.468,128038,18635,10987,102087,124400
2025-05-22 19:29:24.477,128024,18634,10997,102083,124385
2025-05-22 19:29:24.488,128023,18640,10996,102085,124378
2025-05-22 19:29:24.497,128027,18639,10997,102091,124395
2025-05-22 19:29:24.508,128036,18639,10995,102076,124384
2025-05-22 19:29:24.527,128033,18642,10992,102095,124393
2025-05-22 19:29:24.529,128042,18653,10999,102085,124399
2025-05-22 19:29:24.541,128047,18653,10992,102107,124402
2025-05-22 19:29:24.548,128042,18656,10990,102098,124406
2025-05-22 19:29:24.560,128053,18661,10993,102108,124423
2025-05-22 19:29:24.568,128033,18658,10990,102118,124426
2025-05-22 19:29:24.593,128040,18664,10988,102126,124418
2025-05-22 19:29:24.594,128033,18659,10991,102128,124424
2025-05-22 19:29:24.600,128049,18669,10986,102147,124428
2025-05-22 19:29:24.609,128053,18660,10984,102132,124425
2025-05-22 19:29:24.621,128032,18664,10985,102130,124425
2025-05-22 19:29:24.628,128015,18659,10984,102138,124421
2025-05-22 19:29:24.641,128007,18656,10984,102130,124406
2025-05-22 19:29:24.659,127994,18654,10981,102126,124402
2025-05-22 19:29:24.660,128005,18661,10984,102114,124404
2025-05-22 19:29:24.669,128013,18659,10986,102111,124423
2025-05-22 19:29:24.681,128016,18665,10988,102123,124423
2025-05-22 19:29:24.689,128029,18665,10974,102132,124438
2025-05-22 19:29:24.701,128022,18663,10979,102147,124416
2025-05-22 19:29:24.724,128051,18665,10982,102139,124448
2025-05-22 19:29:24.725,128025,18671,10991,102158,124428
2025-05-22 19:29:24.728,128029,18670,10985,102143,124452
2025-05-22 19:29:24.741,128038,18681,10987,102164,124461
2025-05-22 19:29:24.748,128044,18678,10989,102170,124449
2025-05-22 19:29:24.761,128043,18692,10996,102169,124469
2025-05-22 19:29:24.769,128042,18693,10996,102165,124464
2025-05-22 19:29:24.792,128044,18692,11000,102172,124455
2025-05-22 19:29:24.793,128057,18704,10997,102190,124463
2025-05-22 19:29:24.801,128070,18701,11000,102188,124477
2025-05-22 19:29:24.808,128057,18722,11008,102194,124475
2025-05-22 19:29:24.820,128073,18731,11001,102181,124475
2025-05-22 19:29:24.833,128047,18725,11020,102183,124483
2025-05-22 19:29:24.840,128046,18728,11007,102176,124474
2025-05-22 19:29:24.860,128062,18736,11016,102179,124467
2025-05-22 19:29:24.862,128050,18735,11016,102177,124474
2025-05-22 19:29:24.873,128059,18744,11020,102186,124472
2025-05-22 19:29:24.881,128060,18748,11022,102190,124458
2025-05-22 19:29:24.893,128093,18751,11025,102196,124471
2025-05-22 19:29:24.901,128087,18762,11025,102196,124497
2025-05-22 19:29:24.927,128099,18768,11031,102217,124492
2025-05-22 19:29:24.929,128104,18777,11035,102227,124528
2025-05-22 19:29:24.932,128105,18783,11033,102232,124522
2025-05-22 19:29:24.941,128135,18791,11040,102232,124525
2025-05-22 19:29:24.953,128138,18792,11043,102250,124555
2025-05-22 19:29:24.965,128148,18801,11046,102261,124534
2025-05-22 19:29:24.966,128148,18801,11046,102261,124534
2025-05-22 19:29:24.973,128187,18813,11048,102290,124573
2025-05-22 19:29:24.991,128210,18817,11049,102299,124602
2025-05-22 19:29:24.993,128221,18829,11062,102325,124603
2025-05-22 19:29:25.001,128253,18839,11067,102315,124626
2025-05-22 19:29:25.012,128249,18844,11068,102335,124624
2025-05-22 19:29:25.021,128248,18856,11073,102338,124656
2025-05-22 19:29:25.032,128256,18860,11075,102361,124650
2025-05-22 19:29:25.057,128262,18868,11082,102377,124662
2025-05-22 19:29:25.058,128264,18876,11084,102378,124667
2025-05-22 19:29:25.061,128269,18880,11077,102385,124676
2025-05-22 19:29:25.072,128284,18897,11087,102382,124688
2025-05-22 19:29:25.084,128284,18889,11093,102399,124710
2025-05-22 19:29:25.092,128287,18914,11100,102414,124725
2025-05-22 19:29:25.104,128289,18906,11099,102413,124702
2025-05-22 19:29:25.122,128316,18907,11101,102426,124740
2025-05-22 19:29:25.124,128326,18913,11100,102429,124738
2025-05-22 19:29:25.133,128338,18903,11100,102449,124751
2025-05-22 19:29:25.144,128359,18917,11103,102450,124755
2025-05-22 19:29:25.153,128373,18913,11096,102473,124777
2025-05-22 19:29:25.164,128382,18911,11092,102499,124770
2025-05-22 19:29:25.188,128379,18915,11085,102518,124788
2025-05-22 19:29:25.189,128385,18897,11077,102521,124800
2025-05-22 19:29:25.192,128364,18891,11066,102531,124810
2025-05-22 19:29:25.204,128359,18871,11057,102530,124809
2025-05-22 19:29:25.213,128334,18877,11041,102528,124800
2025-05-22 19:29:25.225,128287,18863,11029,102524,124781
2025-05-22 19:29:25.232,128245,18843,11028,102501,124756
2025-05-22 19:29:25.254,128226,18836,11013,102487,124732
2025-05-22 19:29:25.255,128164,18804,11008,102477,124720
2025-05-22 19:29:25.265,128131,18802,10998,102456,124703
2025-05-22 19:29:25.273,128104,18782,10992,102431,124657
2025-05-22 19:29:25.285,128096,18765,10987,102415,124653
2025-05-22 19:29:25.293,128060,18764,10979,102400,124643
2025-05-22 19:29:25.320,128048,18756,10976,102389,124631
2025-05-22 19:29:25.322,128031,18746,10978,102385,124630
2025-05-22 19:29:25.324,128013,18740,10965,102371,124611
2025-05-22 19:29:25.332,127993,18740,10978,102365,124623
2025-05-22 19:29:25.345,127990,18734,10962,102352,124601
2025-05-22 19:29:25.353,127988,18724,10969,102348,124596
2025-05-22 19:29:25.364,127967,18729,10960,102346,124585
2025-05-22 19:29:25.387,127965,18732,10958,102337,124586
2025-05-22 19:29:25.388,127966,18733,10968,102339,124572
2025-05-22 19:29:25.396,127967,18746,10950,102313,124578
2025-05-22 19:29:25.405,127972,18739,10959,102336,124571
2025-05-22 19:29:25.417,127961,18734,10951,102325,124560
2025-05-22 19:29:25.424,127969,18731,10955,102334,124570
2025-05-22 19:29:25.453,127961,18740,10957,102320,124553
2025-05-22 19:29:25.455,127978,18740,10947,102321,124576
2025-05-22 19:29:25.457,127984,18730,10964,102332,124571
2025-05-22 19:29:25.464,127983,18746,10958,102321,124579
2025-05-22 19:29:25.476,127988,18741,10960,102332,124572
2025-05-22 19:29:25.485,127997,18741,10966,102317,124567
2025-05-22 19:29:25.496,127990,18740,10958,102327,124569
2025-05-22 19:29:25.519,127983,18741,10968,102342,124574
2025-05-22 19:29:25.520,127984,18729,10951,102322,124568
2025-05-22 19:29:25.525,127994,18730,10960,102332,124559
2025-05-22 19:29:25.536,127995,18727,10949,102349,124579
2025-05-22 19:29:25.544,128003,18734,10953,102343,124584
2025-05-22 19:29:25.556,128004,18733,10949,102350,124568
2025-05-22 19:29:25.565,128005,18733,10953,102345,124591
2025-05-22 19:29:25.584,127992,18739,10949,102359,124596
2025-05-22 19:29:25.586,128018,18735,10953,102352,124588
2025-05-22 19:29:25.596,128006,18738,10946,102367,124604
2025-05-22 19:29:25.604,128014,18744,10951,102366,124598
2025-05-22 19:29:25.616,128009,18748,10956,102374,124586
2025-05-22 19:29:25.625,128017,18748,10958,102366,124597
2025-05-22 19:29:25.650,128013,18765,10953,102359,124602
2025-05-22 19:29:25.652,128015,18762,10962,102361,124601
2025-05-22 19:29:25.657,128027,18761,10961,102371,124591
2025-05-22 19:29:25.664,128041,18771,10960,102368,124614
2025-05-22 19:29:25.677,128043,18773,10963,102380,124617
2025-05-22 19:29:25.688,128037,18785,10976,102387,124616
2025-05-22 19:29:25.696,128048,18780,10969,102383,124634
2025-05-22 19:29:25.719,128066,18793,10969,102382,124638
2025-05-22 19:29:25.720,128060,18804,10972,102393,124648
2025-05-22 19:29:25.728,128053,18800,10977,102401,124653
2025-05-22 19:29:25.737,128067,18810,10985,102411,124649
2025-05-22 19:29:25.749,128083,18813,10989,102410,124653
2025-05-22 19:29:25.757,128102,18823,10987,102415,124663
2025-05-22 19:29:25.785,128114,18825,10989,102427,124657
2025-05-22 19:29:25.787,128118,18829,10996,102442,124676
2025-05-22 19:29:25.788,128138,18835,10996,102436,124684
2025-05-22 19:29:25.797,128136,18844,11001,102455,124691
2025-05-22 19:29:25.809,128142,18850,11004,102469,124698
2025-05-22 19:29:25.817,128136,18859,11007,102451,124698
2025-05-22 19:29:25.829,128135,18862,11010,102463,124699
2025-05-22 19:29:25.852,128133,18867,11017,102460,124712
2025-05-22 19:29:25.854,128132,18872,11014,102468,124719
2025-05-22 19:29:25.856,128129,18884,11019,102467,124720
2025-05-22 19:29:25.868,128129,18886,11017,102476,124721
2025-05-22 19:29:25.877,128127,18890,11023,102457,124709
2025-05-22 19:29:25.889,128135,18901,11031,102471,124717
2025-05-22 19:29:25.896,128104,18902,11033,102456,124725
2025-05-22 19:29:25.920,128093,18908,11047,102461,124729
2025-05-22 19:29:25.922,128077,18917,11039,102461,124708
2025-05-22 19:29:25.928,128084,18915,11045,102440,124700
2025-05-22 19:29:25.937,128105,18926,11042,102442,124716
2025-05-22 19:29:25.949,128104,18927,11049,102450,124726
2025-05-22 19:29:25.961,128109,18936,11051,102457,124711
2025-05-22 19:29:25.968,128121,18937,11051,102471,124707
2025-05-22 19:29:25.987,128122,18952,11055,102460,124737
2025-05-22 19:29:25.989,128144,18951,11070,102469,124737
2025-05-22 19:29:26.000,128151,18957,11063,102502,124768
2025-05-22 19:29:26.008,128168,18971,11067,102520,124757
2025-05-22 19:29:26.020,128177,18970,11072,102523,124789
2025-05-22 19:29:26.029,128213,18981,11077,102519,124806
2025-05-22 19:29:26.051,128227,18986,11074,102538,124798
2025-05-22 19:29:26.053,128256,19002,11072,102554,124830
2025-05-22 19:29:26.061,128271,18989,11086,102574,124841
2025-05-22 19:29:26.069,128325,18991,11075,102591,124850
2025-05-22 19:29:26.081,128360,18992,11066,102625,124874
2025-05-22 19:29:26.088,128382,18990,11065,102640,124925
2025-05-22 19:29:26.101,128405,18983,11052,102684,124930
2025-05-22 19:29:26.121,128448,18969,11048,102706,124949
2025-05-22 19:29:26.122,128457,18962,11032,102722,124955
2025-05-22 19:29:26.128,128457,18950,11020,102736,124964
2025-05-22 19:29:26.140,128458,18937,11012,102745,124965
2025-05-22 19:29:26.148,128441,18919,11005,102743,124944
2025-05-22 19:29:26.161,128405,18908,10989,102744,124958
2025-05-22 19:29:26.188,128383,18892,10984,102730,124905
2025-05-22 19:29:26.189,128383,18892,10984,102730,124905
2025-05-22 19:29:26.190,128327,18859,10960,102686,124870
2025-05-22 19:29:26.191,128311,18844,10946,102671,124863
2025-05-22 19:29:26.201,128294,18834,10941,102661,124847
2025-05-22 19:29:26.208,128271,18821,10935,102641,124830
2025-05-22 19:29:26.220,128253,18814,10929,102642,124835
2025-05-22 19:29:26.228,128235,18808,10925,102629,124823
2025-05-22 19:29:26.252,128222,18800,10922,102607,124797
2025-05-22 19:29:26.253,128220,18796,10920,102611,124792
2025-05-22 19:29:26.260,128186,18792,10916,102590,124768
2025-05-22 19:29:26.269,128198,18789,10917,102588,124792
2025-05-22 19:29:26.281,128203,18797,10923,102586,124775
2025-05-22 19:29:26.292,128196,18800,10922,102580,124780
2025-05-22 19:29:26.301,128205,18791,10918,102586,124773
2025-05-22 19:29:26.321,128230,18794,10918,102581,124774
2025-05-22 19:29:26.323,128241,18800,10912,102585,124765
2025-05-22 19:29:26.333,128255,18800,10925,102581,124774
2025-05-22 19:29:26.340,128260,18806,10917,102607,124789
2025-05-22 19:29:26.352,128261,18808,10922,102613,124785
2025-05-22 19:29:26.360,128273,18811,10925,102628,124801
2025-05-22 19:29:26.387,128287,18809,10924,102618,124830
2025-05-22 19:29:26.389,128271,18806,10921,102632,124815
2025-05-22 19:29:26.393,128291,18806,10924,102636,124818
2025-05-22 19:29:26.400,128287,18813,10922,102636,124822
2025-05-22 19:29:26.413,128318,18817,10917,102652,124821
2025-05-22 19:29:26.421,128307,18801,10912,102647,124829
2025-05-22 19:29:26.432,128297,18806,10914,102650,124824
2025-05-22 19:29:26.453,128296,18807,10913,102656,124815
2025-05-22 19:29:26.454,128289,18801,10909,102642,124830
2025-05-22 19:29:26.460,128282,18806,10911,102653,124828
2025-05-22 19:29:26.472,128290,18808,10911,102641,124821
2025-05-22 19:29:26.481,128278,18809,10906,102655,124827
2025-05-22 19:29:26.492,128272,18811,10909,102651,124821
2025-05-22 19:29:26.500,128282,18814,10911,102651,124814
2025-05-22 19:29:26.519,128282,18813,10911,102624,124834
2025-05-22 19:29:26.521,128275,18812,10912,102639,124811
2025-05-22 19:29:26.532,128291,18822,10914,102637,124824
2025-05-22 19:29:26.540,128293,18817,10915,102641,124828
2025-05-22 19:29:26.551,128278,18828,10917,102639,124819
2025-05-22 19:29:26.560,128280,18825,10922,102648,124817
2025-05-22 19:29:26.585,128284,18834,10917,102653,124830
2025-05-22 19:29:26.587,128289,18834,10926,102644,124822
2025-05-22 19:29:26.592,128283,18841,10926,102644,124833
2025-05-22 19:29:26.604,128304,18848,10932,102637,124829
2025-05-22 19:29:26.612,128301,18855,10930,102646,124847
2025-05-22 19:29:26.625,128307,18864,10929,102654,124851
2025-05-22 19:29:26.632,128310,18860,10932,102660,124848
2025-05-22 19:29:26.652,128313,18869,10948,102663,124857
2025-05-22 19:29:26.653,128322,18868,10943,102661,124854
2025-05-22 19:29:26.664,128326,18865,10947,102650,124864
2025-05-22 19:29:26.672,128349,18885,10946,102674,124871
2025-05-22 19:29:26.684,128342,18882,10949,102675,124875
2025-05-22 19:29:26.691,128370,18896,10958,102682,124879
2025-05-22 19:29:26.718,128369,18896,10960,102704,124893
2025-05-22 19:29:26.719,128373,18906,10956,102696,124877
2025-05-22 19:29:26.725,128389,18907,10966,102703,124891
2025-05-22 19:29:26.732,128388,18922,10967,102704,124908
2025-05-22 19:29:26.744,128404,18919,10975,102715,124929
2025-05-22 19:29:26.753,128412,18926,10972,102717,124923
2025-05-22 19:29:26.764,128420,18936,10981,102730,124912
2025-05-22 19:29:26.782,128416,18948,10981,102736,124929
2025-05-22 19:29:26.785,128431,18947,10991,102725,124927
2025-05-22 19:29:26.793,128420,18951,10983,102742,124942
2025-05-22 19:29:26.804,128424,18957,10992,102729,124927
2025-05-22 19:29:26.812,128414,18959,10994,102739,124921
2025-05-22 19:29:26.824,128428,18968,11002,102735,124938
2025-05-22 19:29:26.850,128418,18974,11001,102734,124931
2025-05-22 19:29:26.852,128432,18980,11008,102734,124940
2025-05-22 19:29:26.853,128430,18984,11000,102734,124954
2025-05-22 19:29:26.865,128440,18987,11011,102748,124961
2025-05-22 19:29:26.872,128443,18998,11014,102761,124959
2025-05-22 19:29:26.884,128463,19005,11017,102747,124969
2025-05-22 19:29:26.896,128467,18998,11025,102754,124971
2025-05-22 19:29:26.917,128483,19012,11020,102759,124969
2025-05-22 19:29:26.919,128504,19016,11019,102785,124989
2025-05-22 19:29:26.924,128523,19030,11019,102778,124987
2025-05-22 19:29:26.937,128530,19034,11039,102798,125012
2025-05-22 19:29:26.944,128550,19036,11035,102817,125039
2025-05-22 19:29:26.956,128592,19053,11036,102836,125042
2025-05-22 19:29:26.963,128631,19061,11041,102852,125072
2025-05-22 19:29:26.984,128659,19055,11048,102880,125096
2025-05-22 19:29:26.986,128686,19059,11035,102895,125118
2025-05-22 19:29:26.996,128736,19058,11039,102922,125140
2025-05-22 19:29:27.004,128767,19063,11033,102975,125172
2025-05-22 19:29:27.017,128800,19063,11037,102998,125202
2025-05-22 19:29:27.024,128817,19052,11020,103019,125221
2025-05-22 19:29:27.052,128849,19049,11011,103040,125225
2025-05-22 19:29:27.053,128862,19033,11008,103055,125239
2025-05-22 19:29:27.056,128874,19025,10992,103091,125241
2025-05-22 19:29:27.065,128895,19011,10987,103100,125270
2025-05-22 19:29:27.077,128899,19001,10977,103113,125290
2025-05-22 19:29:27.084,128898,18998,10967,103117,125292
2025-05-22 19:29:27.096,128892,18982,10963,103125,125280
2025-05-22 19:29:27.118,128888,18969,10957,103129,125269
2025-05-22 19:29:27.119,128866,18955,10951,103102,125256
2025-05-22 19:29:27.124,128859,18955,10951,103116,125251
2025-05-22 19:29:27.137,128848,18935,10941,103108,125238
2025-05-22 19:29:27.144,128840,18937,10937,103100,125254
2025-05-22 19:29:27.156,128844,18942,10939,103093,125246
2025-05-22 19:29:27.165,128835,18932,10935,103102,125243
2025-05-22 19:29:27.185,128834,18931,10935,103107,125233
2025-05-22 19:29:27.189,128830,18932,10933,103099,125247
2025-05-22 19:29:27.197,128833,18942,10930,103098,125243
2025-05-22 19:29:27.208,128839,18943,10935,103099,125239
2025-05-22 19:29:27.216,128853,18945,10941,103113,125260
2025-05-22 19:29:27.229,128861,18943,10942,103109,125250
2025-05-22 19:29:27.254,128887,18954,10948,103114,125258
2025-05-22 19:29:27.255,128898,18952,10950,103120,125262
2025-05-22 19:29:27.257,128918,18966,10950,103124,125291
2025-05-22 19:29:27.268,128933,18958,10949,103134,125281
2025-05-22 19:29:27.277,128954,18976,10947,103144,125313
2025-05-22 19:29:27.289,128971,18968,10957,103152,125302
2025-05-22 19:29:27.297,128990,18982,10954,103176,125312
2025-05-22 19:29:27.321,129007,18980,10952,103179,125332
2025-05-22 19:29:27.323,129038,18979,10957,103198,125358
2025-05-22 19:29:27.329,129042,18978,10953,103204,125355
2025-05-22 19:29:27.336,129065,18982,10954,103208,125363
2025-05-22 19:29:27.349,129072,18989,10951,103224,125376
2025-05-22 19:29:27.356,129093,18991,10956,103237,125385
2025-05-22 19:29:27.368,129096,18986,10956,103249,125386
2025-05-22 19:29:27.388,129123,18986,10946,103264,125388
2025-05-22 19:29:27.390,129123,18986,10946,103264,125388
2025-05-22 19:29:27.391,129109,18992,10950,103273,125398
2025-05-22 19:29:27.396,129118,18996,10951,103278,125398
2025-05-22 19:29:27.408,129115,18998,10953,103278,125405
2025-05-22 19:29:27.416,129106,19016,10957,103273,125416
2025-05-22 19:29:27.428,129098,19003,10962,103267,125405
2025-05-22 19:29:27.437,129108,19006,10964,103264,125392
2025-05-22 19:29:27.458,129098,19014,10965,103264,125394
2025-05-22 19:29:27.459,129095,19019,10968,103271,125394
2025-05-22 19:29:27.469,129082,19020,10974,103273,125392
2025-05-22 19:29:27.480,129074,19024,10972,103271,125386
2025-05-22 19:29:27.489,129079,19030,10981,103251,125395
2025-05-22 19:29:27.501,129080,19026,10982,103263,125383
2025-05-22 19:29:27.524,129077,19034,10980,103264,125397
2025-05-22 19:29:27.526,129080,19038,10976,103262,125387
2025-05-22 19:29:27.529,129080,19047,10993,103271,125397
2025-05-22 19:29:27.540,129084,19048,10989,103282,125398
2025-05-22 19:29:27.548,129099,19056,10993,103281,125410
2025-05-22 19:29:27.561,129104,19062,11004,103274,125401
2025-05-22 19:29:27.568,129104,19068,11004,103274,125421
2025-05-22 19:29:27.590,129131,19072,11006,103281,125415
2025-05-22 19:29:27.591,129142,19078,11003,103298,125438
2025-05-22 19:29:27.601,129151,19079,11014,103302,125451
2025-05-22 19:29:27.608,129155,19093,11023,103317,125444
2025-05-22 19:29:27.621,129169,19097,11021,103319,125452
2025-05-22 19:29:27.629,129185,19101,11016,103324,125462
2025-05-22 19:29:27.656,129207,19106,11024,103342,125465
2025-05-22 19:29:27.657,129224,19115,11026,103363,125469
2025-05-22 19:29:27.660,129238,19126,11031,103354,125494
2025-05-22 19:29:27.668,129250,19130,11042,103359,125488
2025-05-22 19:29:27.680,129241,19135,11038,103386,125510
2025-05-22 19:29:27.688,129272,19146,11052,103381,125520
2025-05-22 19:29:27.700,129272,19154,11049,103402,125523
2025-05-22 19:29:27.726,129266,19159,11053,103405,125549
2025-05-22 19:29:27.728,129289,19161,11060,103416,125553
2025-05-22 19:29:27.730,129294,19179,11063,103417,125545
2025-05-22 19:29:27.740,129284,19181,11069,103422,125572
2025-05-22 19:29:27.748,129297,19184,11074,103415,125562
2025-05-22 19:29:27.761,129294,19199,11076,103437,125584
2025-05-22 19:29:27.772,129299,19197,11080,103425,125562
2025-05-22 19:29:27.799,129299,19206,11082,103437,125571
2025-05-22 19:29:27.801,129299,19213,11083,103441,125587
2025-05-22 19:29:27.803,129291,19222,11089,103437,125582
2025-05-22 19:29:27.812,129288,19225,11091,103429,125580
2025-05-22 19:29:27.820,129307,19236,11097,103436,125580
2025-05-22 19:29:27.833,129296,19234,11101,103450,125599
2025-05-22 19:29:27.841,129313,19246,11105,103450,125592
2025-05-22 19:29:27.875,129341,19237,11107,103441,125591
2025-05-22 19:29:27.877,129342,19246,11104,103458,125601
2025-05-22 19:29:27.879,129392,19247,11099,103472,125615
2025-05-22 19:29:27.881,129435,19241,11104,103485,125637
2025-05-22 19:29:27.892,129468,19246,11091,103516,125662
2025-05-22 19:29:27.900,129517,19236,11088,103548,125689
2025-05-22 19:29:27.913,129561,19229,11085,103576,125699
2025-05-22 19:29:27.920,129598,19219,11063,103597,125719
2025-05-22 19:29:27.944,129617,19207,11063,103620,125720
2025-05-22 19:29:27.946,129630,19193,11059,103651,125759
2025-05-22 19:29:27.952,129661,19174,11050,103673,125757
2025-05-22 19:29:27.960,129660,19177,11034,103680,125777
2025-05-22 19:29:27.972,129669,19159,11028,103688,125763
2025-05-22 19:29:27.980,129637,19145,11018,103680,125766
2025-05-22 19:29:27.992,129619,19130,11013,103684,125763
2025-05-22 19:29:28.015,129618,19117,11005,103694,125762
2025-05-22 19:29:28.016,129588,19114,11009,103666,125750
2025-05-22 19:29:28.021,129561,19093,10998,103657,125732
2025-05-22 19:29:28.032,129542,19102,10993,103647,125735
2025-05-22 19:29:28.044,129509,19086,10982,103667,125704
2025-05-22 19:29:28.052,129491,19076,10985,103634,125718
2025-05-22 19:29:28.085,129466,19080,10988,103638,125694
2025-05-22 19:29:28.086,129442,19078,10985,103626,125681
2025-05-22 19:29:28.088,129434,19073,10989,103603,125671
2025-05-22 19:29:28.092,129413,19067,10982,103592,125678
2025-05-22 19:29:28.105,129396,19074,10984,103590,125660
2025-05-22 19:29:28.113,129394,19085,10987,103591,125662
2025-05-22 19:29:28.125,129376,19086,10986,103576,125647
2025-05-22 19:29:28.133,129391,19085,10991,103566,125662
2025-05-22 19:29:28.156,129378,19089,10993,103571,125653
2025-05-22 19:29:28.158,129387,19087,10989,103587,125646
2025-05-22 19:29:28.165,129412,19085,10996,103583,125659
2025-05-22 19:29:28.172,129418,19093,10992,103591,125645
2025-05-22 19:29:28.184,129429,19090,10992,103601,125662
2025-05-22 19:29:28.192,129429,19089,10988,103600,125668
2025-05-22 19:29:28.204,129416,19089,10996,103597,125672
2025-05-22 19:29:28.227,129446,19100,10995,103592,125676
2025-05-22 19:29:28.229,129442,19092,10996,103612,125674
2025-05-22 19:29:28.232,129435,19096,10994,103609,125683
2025-05-22 19:29:28.244,129441,19096,10990,103621,125685
2025-05-22 19:29:28.253,129441,19090,10999,103607,125676
2025-05-22 19:29:28.264,129438,19096,10991,103625,125690
2025-05-22 19:29:28.272,129457,19093,10989,103615,125670
2025-05-22 19:29:28.296,129445,19100,11001,103621,125679
2025-05-22 19:29:28.298,129453,19089,10993,103610,125680
2025-05-22 19:29:28.305,129451,19089,10991,103630,125672
2025-05-22 19:29:28.312,129448,19093,10995,103610,125690
2025-05-22 19:29:28.324,129440,19100,10999,103624,125673
2025-05-22 19:29:28.333,129447,19105,11002,103624,125686
2025-05-22 19:29:28.344,129427,19100,10990,103631,125706
2025-05-22 19:29:28.367,129421,19098,11001,103624,125683
2025-05-22 19:29:28.369,129433,19107,11005,103630,125680
2025-05-22 19:29:28.376,129438,19111,11007,103620,125682
2025-05-22 19:29:28.385,129425,19122,11010,103630,125689
2025-05-22 19:29:28.396,129440,19129,11009,103610,125692
2025-05-22 19:29:28.403,129444,19117,11014,103627,125688
2025-05-22 19:29:28.416,129436,19132,11017,103621,125704
2025-05-22 19:29:28.437,129440,19146,11018,103621,125704
2025-05-22 19:29:28.439,129444,19148,11028,103625,125705
2025-05-22 19:29:28.444,129449,19150,11030,103636,125709
2025-05-22 19:29:28.457,129460,19157,11034,103646,125703
2025-05-22 19:29:28.464,129438,19167,11040,103630,125701
2025-05-22 19:29:28.476,129455,19178,11042,103641,125713
2025-05-22 19:29:28.484,129447,19177,11045,103645,125718
2025-05-22 19:29:28.507,129468,19184,11049,103652,125705
2025-05-22 19:29:28.508,129485,19187,11056,103649,125718
2025-05-22 19:29:28.517,129491,19193,11055,103663,125734
2025-05-22 19:29:28.524,129482,19201,11065,103663,125739
2025-05-22 19:29:28.537,129485,19211,11056,103658,125741
2025-05-22 19:29:28.545,129491,19213,11066,103663,125747
2025-05-22 19:29:28.556,129491,19213,11066,103663,125747
2025-05-22 19:29:28.578,129502,19214,11065,103651,125749
2025-05-22 19:29:28.580,129513,19220,11074,103670,125755
2025-05-22 19:29:28.589,129521,19231,11074,103684,125742
2025-05-22 19:29:28.591,129521,19231,11074,103684,125742
2025-05-22 19:29:28.592,129521,19231,11074,103684,125742
2025-05-22 19:29:28.597,129530,19240,11089,103684,125778
2025-05-22 19:29:28.608,129530,19253,11087,103695,125758
2025-05-22 19:29:28.616,129512,19252,11092,103692,125778
2025-05-22 19:29:28.648,129524,19259,11097,103696,125775
2025-05-22 19:29:28.650,129512,19266,11098,103697,125775
2025-05-22 19:29:28.651,129539,19273,11111,103705,125795
2025-05-22 19:29:28.656,129526,19278,11105,103703,125774
2025-05-22 19:29:28.668,129548,19290,11105,103704,125796
2025-05-22 19:29:28.676,129542,19290,11110,103709,125806
2025-05-22 19:29:28.688,129540,19301,11127,103708,125790
2025-05-22 19:29:28.697,129550,19304,11128,103715,125813
2025-05-22 19:29:28.716,129555,19311,11133,103718,125812
2025-05-22 19:29:28.718,129571,19319,11129,103713,125800
2025-05-22 19:29:28.729,129563,19319,11133,103727,125820
2025-05-22 19:29:28.736,129578,19325,11135,103715,125807
2025-05-22 19:29:28.748,129609,19320,11134,103728,125825
2025-05-22 19:29:28.756,129643,19323,11133,103751,125844
2025-05-22 19:29:28.784,129686,19319,11127,103777,125849
2025-05-22 19:29:28.786,129722,19307,11111,103797,125874
2025-05-22 19:29:28.788,129754,19310,11111,103809,125902
2025-05-22 19:29:28.797,129796,19295,11101,103831,125894
2025-05-22 19:29:28.808,129820,19274,11092,103855,125923
2025-05-22 19:29:28.816,129822,19257,11076,103865,125936
2025-05-22 19:29:28.828,129836,19245,11072,103880,125932
2025-05-22 19:29:28.856,129839,19225,11064,103891,125922
2025-05-22 19:29:28.858,129849,19216,11061,103887,125932
2025-05-22 19:29:28.860,129837,19217,11048,103895,125935
2025-05-22 19:29:28.869,129835,19191,11037,103918,125936
2025-05-22 19:29:28.880,129808,19180,11032,103902,125938
2025-05-22 19:29:28.889,129806,19159,11028,103897,125910
2025-05-22 19:29:28.900,129786,19166,11019,103894,125917
2025-05-22 19:29:28.928,129777,19154,11024,103887,125905
2025-05-22 19:29:28.929,129757,19146,11021,103889,125895
2025-05-22 19:29:28.931,129735,19141,11015,103871,125887
2025-05-22 19:29:28.940,129725,19137,11011,103881,125888
2025-05-22 19:29:28.948,129711,19142,11019,103866,125871
2025-05-22 19:29:28.960,129684,19134,11004,103865,125885
2025-05-22 19:29:28.967,129675,19133,11014,103854,125873
2025-05-22 19:29:29.001,129647,19142,11007,103857,125874
2025-05-22 19:29:29.003,129649,19157,11015,103840,125851
2025-05-22 19:29:29.004,129637,19143,11012,103838,125848
2025-05-22 19:29:29.008,129647,19146,11014,103843,125841
2025-05-22 19:29:29.020,129653,19151,11021,103826,125852
2025-05-22 19:29:29.028,129648,19148,11021,103846,125850
2025-05-22 19:29:29.040,129658,19149,11022,103848,125860
2025-05-22 19:29:29.047,129653,19159,11019,103829,125857
2025-05-22 19:29:29.072,129672,19156,11026,103838,125862
2025-05-22 19:29:29.074,129671,19153,11013,103856,125862
2025-05-22 19:29:29.080,129689,19155,11024,103832,125879
2025-05-22 19:29:29.088,129691,19155,11025,103856,125858
2025-05-22 19:29:29.099,129700,19149,11027,103854,125865
2025-05-22 19:29:29.109,129712,19160,11021,103855,125880
2025-05-22 19:29:29.121,129717,19154,11015,103859,125862
2025-05-22 19:29:29.145,129705,19156,11017,103863,125886
2025-05-22 19:29:29.147,129721,19148,11022,103853,125884
2025-05-22 19:29:29.153,129718,19152,11024,103859,125884
2025-05-22 19:29:29.160,129700,19152,11014,103880,125887
2025-05-22 19:29:29.172,129717,19153,11020,103877,125875
2025-05-22 19:29:29.181,129697,19153,11023,103880,125880
2025-05-22 19:29:29.193,129706,19150,11023,103869,125871
2025-05-22 19:29:29.214,129702,19153,11032,103871,125875
2025-05-22 19:29:29.216,129698,19159,11029,103864,125877
2025-05-22 19:29:29.220,129686,19159,11026,103869,125871
2025-05-22 19:29:29.233,129686,19158,11027,103870,125872
2025-05-22 19:29:29.240,129689,19168,11031,103869,125883
2025-05-22 19:29:29.252,129672,19167,11032,103865,125864
2025-05-22 19:29:29.260,129670,19174,11042,103872,125883
2025-05-22 19:29:29.285,129669,19180,11041,103856,125880
2025-05-22 19:29:29.287,129653,19178,11048,103858,125889
2025-05-22 19:29:29.293,129661,19184,11043,103853,125892
2025-05-22 19:29:29.301,129662,19184,11051,103855,125852
2025-05-22 19:29:29.312,129678,19195,11055,103858,125887
2025-05-22 19:29:29.320,129681,19201,11059,103866,125877
2025-05-22 19:29:29.332,129688,19207,11061,103876,125890
2025-05-22 19:29:29.355,129689,19210,11064,103859,125892
2025-05-22 19:29:29.357,129679,19219,11070,103876,125902
2025-05-22 19:29:29.360,129670,19217,11074,103886,125894
2025-05-22 19:29:29.371,129685,19224,11077,103880,125894
