Timestamp,PPG1,PPG2,PPG3,PPG4,PPG5
2025-05-05 18:06:12.313,116558,17712,16771,68422,105861
2025-05-05 18:06:12.359,116606,17727,16790,68478,105934
2025-05-05 18:06:12.360,116597,17698,16797,68501,105953
2025-05-05 18:06:12.361,116592,17681,16772,68427,105869
2025-05-05 18:06:12.362,116656,17685,16759,68407,105826
2025-05-05 18:06:12.363,116697,17694,16769,68421,105843
2025-05-05 18:06:12.364,116752,17697,16795,68453,105864
2025-05-05 18:06:12.365,116799,17708,16811,68465,105888
2025-05-05 18:06:12.366,116839,17712,16828,68496,105908
2025-05-05 18:06:12.367,116842,17701,16834,68517,105909
2025-05-05 18:06:12.368,116840,17688,16833,68501,105867
2025-05-05 18:06:12.370,116834,17679,16816,68478,105822
2025-05-05 18:06:12.371,116838,17664,16815,68461,105799
2025-05-05 18:06:12.372,116837,17659,16815,68464,105777
2025-05-05 18:06:12.373,116818,17654,16812,68454,105769
2025-05-05 18:06:12.374,116814,17654,16810,68458,105770
2025-05-05 18:06:12.375,116813,17651,16805,68461,105771
2025-05-05 18:06:12.377,116810,17649,16803,68468,105770
2025-05-05 18:06:12.378,116803,17644,16805,68476,105767
2025-05-05 18:06:12.379,116815,17656,16814,68491,105779
2025-05-05 18:06:12.380,116833,17667,16823,68507,105792
2025-05-05 18:06:12.381,116869,17682,16845,68540,105837
2025-05-05 18:06:12.381,116898,17693,16869,68598,105905
2025-05-05 18:06:12.382,116864,17694,16882,68628,105930
2025-05-05 18:06:12.383,116841,17692,16878,68633,105904
2025-05-05 18:06:12.383,116828,17686,16878,68638,105906
2025-05-05 18:06:12.384,116839,17694,16877,68642,105899
2025-05-05 18:06:12.384,116866,17698,16879,68659,105924
2025-05-05 18:06:12.385,116872,17697,16887,68691,105941
2025-05-05 18:06:12.386,116840,17681,16887,68681,105929
2025-05-05 18:06:12.386,116813,17664,16863,68647,105869
2025-05-05 18:06:12.387,116802,17640,16843,68595,105815
2025-05-05 18:06:12.387,116797,17624,16822,68545,105740
2025-05-05 18:06:12.388,116802,17615,16808,68508,105685
2025-05-05 18:06:12.389,116842,17609,16814,68507,105673
2025-05-05 18:06:12.395,116878,17613,16818,68496,105681
2025-05-05 18:06:12.403,116907,17620,16827,68525,105693
2025-05-05 18:06:12.804,116883,17613,16837,68538,105713
2025-05-05 18:06:12.806,116860,17598,16822,68498,105679
2025-05-05 18:06:12.807,116833,17584,16805,68460,105629
2025-05-05 18:06:12.808,116821,17569,16790,68430,105588
2025-05-05 18:06:12.810,116827,17562,16782,68393,105550
2025-05-05 18:06:12.811,116860,17565,16781,68385,105539
2025-05-05 18:06:12.813,116871,17570,16788,68392,105561
2025-05-05 18:06:12.815,116861,17562,16794,68389,105561
2025-05-05 18:06:12.817,116829,17542,16786,68368,105533
2025-05-05 18:06:12.818,116833,17536,16769,68325,105477
2025-05-05 18:06:12.819,116849,17540,16759,68294,105442
2025-05-05 18:06:12.820,116873,17548,16769,68315,105470
2025-05-05 18:06:12.821,116900,17557,16781,68328,105487
2025-05-05 18:06:12.823,116933,17568,16796,68348,105529
2025-05-05 18:06:12.824,116965,17584,16814,68370,105567
2025-05-05 18:06:12.825,117001,17604,16839,68408,105608
2025-05-05 18:06:12.827,116974,17599,16865,68435,105655
2025-05-05 18:06:12.828,116941,17593,16857,68421,105633
2025-05-05 18:06:12.830,116919,17593,16853,68393,105602
2025-05-05 18:06:12.831,116923,17606,16857,68399,105589
2025-05-05 18:06:12.832,116969,17634,16881,68430,105655
2025-05-05 18:06:12.834,116988,17655,16914,68505,105742
2025-05-05 18:06:12.835,117006,17680,16943,68562,105808
2025-05-05 18:06:12.836,117033,17709,16963,68616,105902
2025-05-05 18:06:12.836,117010,17711,16988,68682,105982
2025-05-05 18:06:12.837,116972,17699,16991,68665,105961
2025-05-05 18:06:12.838,116935,17678,16980,68622,105892
2025-05-05 18:06:12.839,116880,17649,16947,68545,105819
2025-05-05 18:06:12.839,116852,17620,16905,68442,105709
2025-05-05 18:06:12.840,116860,17604,16872,68360,105622
2025-05-05 18:06:12.841,116891,17582,16852,68301,105558
2025-05-05 18:06:12.841,116920,17569,16833,68246,105499
2025-05-05 18:06:12.842,116955,17550,16821,68188,105442
2025-05-05 18:06:12.843,116955,17529,16808,68134,105388
2025-05-05 18:06:12.843,116964,17518,16789,68071,105311
2025-05-05 18:06:12.844,116960,17513,16776,68027,105261
2025-05-05 18:06:12.844,117002,17533,16768,67994,105231
2025-05-05 18:06:12.845,117069,17576,16792,68031,105274
2025-05-05 18:06:12.846,117078,17616,16846,68094,105351
2025-05-05 18:06:12.846,117043,17635,16897,68169,105406
2025-05-05 18:06:12.847,116966,17636,16908,68196,105390
2025-05-05 18:06:12.848,116889,17651,16905,68252,105408
2025-05-05 18:06:12.863,116771,17613,16912,68355,105467
2025-05-05 18:06:12.864,116729,17602,16869,68324,105384
2025-05-05 18:06:12.865,116782,17636,16869,68367,105436
2025-05-05 18:06:12.866,116871,17704,16915,68465,105573
2025-05-05 18:06:12.874,117007,17785,16986,68611,105802
2025-05-05 18:06:12.886,117085,17832,17063,68813,106108
2025-05-05 18:06:12.894,117022,17792,17077,68879,106212
2025-05-05 18:06:12.906,116904,17712,16994,68715,106044
2025-05-05 18:06:12.925,116825,17630,16892,68481,105770
2025-05-05 18:06:12.927,116805,17566,16802,68258,105509
2025-05-05 18:06:12.934,116822,17518,16743,68099,105335
2025-05-05 18:06:12.947,116914,17511,16715,67992,105245
2025-05-05 18:06:12.953,116990,17507,16718,67965,105237
2025-05-05 18:06:12.966,117010,17501,16714,67943,105219
2025-05-05 18:06:12.974,117017,17493,16710,67917,105191
2025-05-05 18:06:12.988,117031,17501,16712,67918,105177
2025-05-05 18:06:12.994,117024,17507,16720,67912,105187
2025-05-05 18:06:13.006,117020,17506,16724,67911,105188
2025-05-05 18:06:13.014,117029,17517,16734,67903,105185
2025-05-05 18:06:13.027,117053,17524,16743,67916,105182
2025-05-05 18:06:13.034,117037,17520,16764,67930,105200
2025-05-05 18:06:13.052,117006,17510,16759,67909,105160
2025-05-05 18:06:13.054,117011,17504,16754,67891,105127
2025-05-05 18:06:13.066,117015,17506,16762,67883,105095
2025-05-05 18:06:13.078,117052,17518,16770,67883,105101
2025-05-05 18:06:13.086,117071,17524,16798,67906,105143
2025-05-05 18:06:13.097,117087,17524,16806,67940,105146
2025-05-05 18:06:13.115,117108,17526,16814,67944,105143
2025-05-05 18:06:13.118,117112,17524,16816,67941,105149
2025-05-05 18:06:13.126,117109,17511,16811,67930,105127
2025-05-05 18:06:13.138,117124,17497,16797,67911,105096
2025-05-05 18:06:13.146,117126,17484,16792,67871,105062
2025-05-05 18:06:13.159,117168,17474,16779,67855,105053
2025-05-05 18:06:13.177,117218,17473,16775,67831,105032
2025-05-05 18:06:13.179,117280,17481,16787,67852,105040
2025-05-05 18:06:13.186,117293,17484,16794,67858,105060
2025-05-05 18:06:13.198,117306,17480,16801,67863,105071
2025-05-05 18:06:13.206,117329,17491,16803,67882,105069
2025-05-05 18:06:13.209,117329,17491,16803,67882,105069
2025-05-05 18:06:13.218,117455,17528,16846,67980,105196
2025-05-05 18:06:13.226,117501,17553,16869,68024,105253
2025-05-05 18:06:13.241,117528,17570,16903,68069,105304
2025-05-05 18:06:13.246,117546,17587,16923,68102,105352
2025-05-05 18:06:13.258,117540,17604,16947,68129,105384
2025-05-05 18:06:13.266,117543,17620,16969,68151,105425
2025-05-05 18:06:13.278,117545,17640,16984,68171,105413
2025-05-05 18:06:13.287,117561,17672,17012,68197,105447
2025-05-05 18:06:13.304,117588,17699,17050,68267,105506
2025-05-05 18:06:13.306,117624,17741,17099,68341,105585
2025-05-05 18:06:13.318,117638,17777,17156,68415,105671
2025-05-05 18:06:13.326,117668,17811,17201,68497,105725
2025-05-05 18:06:13.338,117711,17852,17254,68572,105789
2025-05-05 18:06:13.345,117814,17903,17323,68676,105885
2025-05-05 18:06:13.367,117911,17963,17405,68808,106031
2025-05-05 18:06:13.368,117987,18026,17495,68965,106203
2025-05-05 18:06:13.377,118052,18067,17591,69131,106384
2025-05-05 18:06:13.386,118100,18095,17652,69229,106475
2025-05-05 18:06:13.398,118147,18119,17701,69306,106527
2025-05-05 18:06:13.410,118182,18140,17749,69385,106585
2025-05-05 18:06:13.430,118211,18151,17786,69448,106606
2025-05-05 18:06:13.431,118249,18172,17817,69483,106639
2025-05-05 18:06:13.438,118317,18201,17855,69552,106699
2025-05-05 18:06:13.450,118375,18228,17905,69631,106786
2025-05-05 18:06:13.458,118406,18256,17955,69712,106847
2025-05-05 18:06:13.470,118469,18280,18000,69800,106930
2025-05-05 18:06:13.477,118505,18310,18045,69862,107015
2025-05-05 18:06:13.506,118563,18336,18085,69937,107079
2025-05-05 18:06:13.507,118613,18361,18132,70006,107167
2025-05-05 18:06:13.509,118655,18391,18175,70092,107228
2025-05-05 18:06:13.517,118718,18423,18216,70175,107314
2025-05-05 18:06:13.529,118732,18424,18252,70235,107385
2025-05-05 18:06:13.537,118703,18408,18265,70246,107383
2025-05-05 18:06:13.550,118679,18385,18245,70199,107333
2025-05-05 18:06:15.064,118646,18359,18199,70121,107231
2025-05-05 18:06:15.442,118599,18348,18189,70087,107187
2025-05-05 18:06:15.444,118574,18338,18177,70056,107142
2025-05-05 18:06:15.445,118551,18341,18169,70042,107128
2025-05-05 18:06:15.445,118567,18349,18175,70050,107144
2025-05-05 18:06:15.446,118608,18363,18188,70093,107178
2025-05-05 18:06:15.447,118635,18378,18218,70124,107253
2025-05-05 18:06:15.447,118646,18380,18238,70153,107265
2025-05-05 18:06:15.448,118661,18384,18239,70158,107263
2025-05-05 18:06:15.449,118702,18389,18242,70161,107271
2025-05-05 18:06:15.449,118694,18385,18252,70167,107287
2025-05-05 18:06:15.450,118669,18374,18235,70135,107230
2025-05-05 18:06:15.451,118640,18361,18218,70083,107179
2025-05-05 18:06:15.451,118619,18352,18201,70045,107149
2025-05-05 18:06:15.452,118611,18347,18188,70031,107111
2025-05-05 18:06:15.453,118608,18343,18183,70016,107098
2025-05-05 18:06:15.453,118613,18352,18180,70025,107104
2025-05-05 18:06:15.454,118646,18354,18182,70027,107117
2025-05-05 18:06:15.454,118635,18345,18179,70040,107122
2025-05-05 18:06:15.455,118642,18344,18176,70041,107131
2025-05-05 18:06:15.456,118630,18341,18173,70057,107143
2025-05-05 18:06:15.456,118632,18336,18161,70061,107143
2025-05-05 18:06:15.457,118623,18326,18156,70057,107143
2025-05-05 18:06:15.457,118613,18322,18144,70064,107136
2025-05-05 18:06:15.458,118615,18317,18133,70066,107148
2025-05-05 18:06:15.459,118611,18314,18125,70071,107158
2025-05-05 18:06:15.459,118618,18313,18123,70078,107175
2025-05-05 18:06:15.460,118623,18312,18124,70089,107196
2025-05-05 18:06:15.460,118630,18312,18122,70105,107214
2025-05-05 18:06:15.461,118625,18307,18124,70109,107228
2025-05-05 18:06:15.461,118632,18297,18116,70103,107232
2025-05-05 18:06:15.462,118620,18288,18108,70075,107231
2025-05-05 18:06:15.463,118612,18279,18099,70060,107198
2025-05-05 18:06:15.463,118624,18277,18092,70041,107196
2025-05-05 18:06:15.464,118639,18282,18086,70038,107206
2025-05-05 18:06:15.464,118675,18280,18091,70039,107229
2025-05-05 18:06:15.465,118722,18289,18098,70048,107252
2025-05-05 18:06:15.466,118748,18304,18118,70058,107277
2025-05-05 18:06:15.466,118791,18319,18143,70086,107333
2025-05-05 18:06:15.467,118819,18336,18165,70108,107385
2025-05-05 18:06:15.467,118837,18353,18193,70143,107438
2025-05-05 18:06:15.468,118841,18358,18210,70160,107447
2025-05-05 18:06:15.469,118829,18360,18212,70158,107476
2025-05-05 18:06:15.469,118819,18369,18218,70157,107488
2025-05-05 18:06:15.470,118826,18371,18219,70153,107501
2025-05-05 18:06:15.470,118818,18367,18216,70149,107494
2025-05-05 18:06:15.471,118812,18366,18218,70129,107488
2025-05-05 18:06:15.472,118803,18365,18213,70118,107489
2025-05-05 18:06:15.473,118805,18355,18209,70093,107471
2025-05-05 18:06:15.474,118798,18355,18202,70067,107482
2025-05-05 18:06:15.475,118778,18348,18195,70047,107446
2025-05-05 18:06:15.475,118795,18337,18188,70006,107423
2025-05-05 18:06:15.476,118769,18332,18177,69975,107410
2025-05-05 18:06:15.477,118784,18322,18163,69938,107383
2025-05-05 18:06:15.478,118767,18304,18151,69888,107337
2025-05-05 18:06:15.478,118759,18287,18134,69841,107301
2025-05-05 18:06:15.479,118757,18276,18109,69791,107246
2025-05-05 18:06:15.479,118765,18273,18090,69742,107224
2025-05-05 18:06:15.480,118795,18274,18080,69717,107215
2025-05-05 18:06:15.481,118821,18281,18083,69715,107227
2025-05-05 18:06:15.481,118855,18285,18093,69714,107238
2025-05-05 18:06:15.482,118866,18284,18091,69696,107233
2025-05-05 18:06:15.482,118858,18282,18093,69665,107223
2025-05-05 18:06:15.483,118873,18282,18090,69648,107199
2025-05-05 18:06:15.484,118869,18280,18088,69613,107179
2025-05-05 18:06:15.485,118873,18288,18087,69593,107147
2025-05-05 18:06:15.485,118901,18295,18089,69592,107170
2025-05-05 18:06:15.486,118928,18307,18102,69587,107181
2025-05-05 18:06:15.486,118959,18324,18123,69602,107209
2025-05-05 18:06:15.487,118956,18337,18143,69623,107238
2025-05-05 18:06:15.487,118941,18340,18150,69620,107243
2025-05-05 18:06:15.488,118935,18348,18159,69617,107250
2025-05-05 18:06:15.489,118927,18356,18162,69616,107263
2025-05-05 18:06:15.489,118912,18367,18165,69622,107279
2025-05-05 18:06:15.490,118909,18379,18179,69634,107306
2025-05-05 18:06:15.505,118910,18392,18181,69657,107341
2025-05-05 18:06:15.506,118911,18393,18196,69671,107364
2025-05-05 18:06:15.507,118922,18398,18199,69668,107379
2025-05-05 18:06:15.508,118941,18402,18197,69667,107410
2025-05-05 18:06:15.509,118971,18416,18203,69676,107450
2025-05-05 18:06:15.509,118997,18428,18219,69697,107490
2025-05-05 18:06:15.510,119031,18443,18233,69720,107532
2025-05-05 18:06:15.511,119067,18460,18255,69751,107588
2025-05-05 18:06:15.512,119101,18472,18279,69779,107636
2025-05-05 18:06:15.513,119116,18493,18295,69791,107663
2025-05-05 18:06:15.514,119137,18507,18314,69802,107705
2025-05-05 18:06:15.515,119144,18523,18339,69833,107747
2025-05-05 18:06:15.516,119167,18543,18362,69864,107768
2025-05-05 18:06:15.516,119167,18548,18378,69882,107826
2025-05-05 18:06:15.517,119163,18550,18388,69888,107844
2025-05-05 18:06:15.518,119157,18557,18385,69875,107819
2025-05-05 18:06:15.519,119159,18560,18383,69869,107835
2025-05-05 18:06:15.521,119160,18569,18381,69869,107846
2025-05-05 18:06:15.522,119178,18578,18390,69876,107875
2025-05-05 18:06:15.523,119199,18597,18412,69909,107914
2025-05-05 18:06:15.524,119217,18607,18425,69934,107954
2025-05-05 18:06:15.525,119229,18611,18440,69956,107995
2025-05-05 18:06:15.525,119228,18616,18449,69968,107993
2025-05-05 18:06:15.526,119201,18618,18452,69971,108007
2025-05-05 18:06:15.527,119196,18618,18445,69964,108029
2025-05-05 18:06:15.528,119203,18627,18451,69968,108029
2025-05-05 18:06:15.529,119210,18633,18460,69977,108054
2025-05-05 18:06:15.530,119207,18633,18463,69983,108070
2025-05-05 18:06:15.530,119218,18640,18468,69978,108059
2025-05-05 18:06:15.531,119226,18645,18471,69972,108076
2025-05-05 18:06:15.531,119226,18645,18471,69972,108076
2025-05-05 18:06:15.532,119250,18660,18485,69980,108096
2025-05-05 18:06:15.533,119257,18663,18495,69986,108114
2025-05-05 18:06:15.533,119253,18667,18497,69989,108109
2025-05-05 18:06:15.534,119255,18665,18500,69988,108127
2025-05-05 18:06:15.534,119228,18662,18496,69987,108130
2025-05-05 18:06:15.535,119225,18656,18490,69985,108114
2025-05-05 18:06:15.536,119209,18650,18485,69970,108111
2025-05-05 18:06:15.536,119200,18643,18477,69970,108123
2025-05-05 18:06:15.537,119214,18642,18472,69972,108128
2025-05-05 18:06:15.537,119217,18637,18472,69971,108145
2025-05-05 18:06:15.538,119215,18636,18466,69974,108158
2025-05-05 18:06:15.539,119225,18632,18468,69964,108178
2025-05-05 18:06:15.540,119220,18626,18466,69967,108194
2025-05-05 18:06:15.541,119219,18615,18460,69956,108183
2025-05-05 18:06:15.541,119219,18610,18451,69925,108180
2025-05-05 18:06:15.542,119220,18613,18443,69918,108179
2025-05-05 18:06:15.543,119236,18609,18445,69910,108178
2025-05-05 18:06:15.543,119254,18612,18452,69901,108199
2025-05-05 18:06:15.544,119282,18619,18461,69904,108219
2025-05-05 18:06:15.545,119290,18622,18476,69908,108233
2025-05-05 18:06:15.545,119299,18634,18488,69919,108266
2025-05-05 18:06:15.546,119304,18639,18497,69937,108287
2025-05-05 18:06:15.546,119310,18640,18507,69941,108298
2025-05-05 18:06:15.547,119323,18641,18506,69935,108311
2025-05-05 18:06:15.548,119313,18646,18504,69935,108305
2025-05-05 18:06:15.548,119312,18645,18520,69936,108333
2025-05-05 18:06:15.549,119302,18645,18514,69930,108336
2025-05-05 18:06:15.549,119326,18647,18511,69926,108324
2025-05-05 18:06:15.550,119331,18653,18511,69921,108355
2025-05-05 18:06:15.551,119328,18660,18522,69934,108364
2025-05-05 18:06:15.551,119333,18664,18531,69948,108398
2025-05-05 18:06:15.552,119351,18675,18540,69960,108420
2025-05-05 18:06:15.552,119355,18684,18553,69973,108440
2025-05-05 18:06:15.568,119371,18693,18567,70001,108476
2025-05-05 18:06:15.569,119376,18695,18570,70010,108500
2025-05-05 18:06:15.570,119380,18696,18574,70019,108526
2025-05-05 18:06:15.571,119371,18698,18573,70005,108499
2025-05-05 18:06:15.572,119375,18697,18568,69999,108510
2025-05-05 18:06:15.575,119385,18703,18575,70008,108517
2025-05-05 18:06:15.577,119402,18710,18579,70035,108554
2025-05-05 18:06:15.577,119430,18723,18596,70064,108596
2025-05-05 18:06:15.578,119434,18738,18612,70091,108631
2025-05-05 18:06:15.579,119455,18745,18622,70132,108667
2025-05-05 18:06:15.579,119451,18761,18634,70160,108697
2025-05-05 18:06:15.580,119473,18766,18639,70178,108715
2025-05-05 18:06:15.581,119468,18774,18650,70193,108744
2025-05-05 18:06:15.582,119478,18782,18657,70230,108773
2025-05-05 18:06:15.583,119502,18797,18664,70252,108793
2025-05-05 18:06:15.583,119505,18805,18675,70272,108836
2025-05-05 18:06:15.584,119522,18812,18688,70305,108867
2025-05-05 18:06:15.585,119540,18825,18699,70333,108902
2025-05-05 18:06:15.585,119553,18836,18707,70361,108942
2025-05-05 18:06:15.586,119587,18857,18726,70405,108995
2025-05-05 18:06:15.587,119596,18867,18742,70452,109040
2025-05-05 18:06:15.587,119606,18880,18755,70494,109089
2025-05-05 18:06:15.588,119597,18884,18766,70516,109107
2025-05-05 18:06:15.589,119581,18885,18765,70512,109114
2025-05-05 18:06:15.589,119564,18885,18766,70495,109095
2025-05-05 18:06:15.590,119568,18882,18755,70476,109077
2025-05-05 18:06:15.591,119575,18887,18760,70487,109085
2025-05-05 18:06:15.593,119596,18893,18776,70508,109110
2025-05-05 18:06:15.594,119611,18909,18788,70535,109140
2025-05-05 18:06:15.595,119634,18916,18802,70547,109172
2025-05-05 18:06:15.595,119661,18926,18815,70568,109207
2025-05-05 18:06:15.596,119690,18944,18830,70603,109249
2025-05-05 18:06:15.597,119685,18948,18840,70625,109278
2025-05-05 18:06:15.597,119660,18945,18844,70626,109288
2025-05-05 18:06:15.598,119639,18939,18839,70605,109252
2025-05-05 18:06:15.599,119629,18935,18834,70584,109250
2025-05-05 18:06:15.599,119628,18942,18830,70575,109220
2025-05-05 18:06:15.600,119625,18942,18830,70570,109240
2025-05-05 18:06:15.600,119641,18950,18838,70581,109250
2025-05-05 18:06:15.601,119672,18956,18851,70591,109282
2025-05-05 18:06:15.601,119681,18962,18862,70605,109311
2025-05-05 18:06:15.602,119688,18969,18868,70612,109332
2025-05-05 18:06:15.603,119681,18975,18871,70612,109327
2025-05-05 18:06:15.603,119686,18979,18875,70607,109341
2025-05-05 18:06:15.604,119691,18980,18882,70611,109347
2025-05-05 18:06:15.604,119692,18979,18881,70602,109334
2025-05-05 18:06:15.605,119706,18982,18891,70606,109352
2025-05-05 18:06:15.605,119717,18982,18892,70602,109356
2025-05-05 18:06:15.606,119710,18983,18897,70591,109338
2025-05-05 18:06:15.607,119723,18990,18898,70582,109334
2025-05-05 18:06:15.607,119720,18989,18904,70591,109342
2025-05-05 18:06:15.608,119722,18996,18906,70592,109350
2025-05-05 18:06:15.609,119719,18996,18915,70599,109351
2025-05-05 18:06:15.609,119713,18998,18910,70596,109346
2025-05-05 18:06:15.610,119703,18994,18916,70594,109342
2025-05-05 18:06:15.610,119709,18990,18911,70587,109342
2025-05-05 18:06:15.611,119695,18984,18907,70584,109319
2025-05-05 18:06:15.612,119698,18982,18900,70561,109281
2025-05-05 18:06:15.612,119685,18971,18886,70544,109245
2025-05-05 18:06:15.613,119688,18968,18876,70522,109211
2025-05-05 18:06:15.613,119688,18973,18871,70521,109201
2025-05-05 18:06:15.614,119691,18966,18878,70531,109220
2025-05-05 18:06:15.615,119682,18960,18878,70540,109207
2025-05-05 18:06:15.615,119681,18955,18869,70530,109195
2025-05-05 18:06:15.616,119672,18946,18859,70522,109174
2025-05-05 18:06:15.617,119665,18943,18851,70523,109181
2025-05-05 18:06:15.632,119667,18939,18850,70524,109159
2025-05-05 18:06:15.633,119701,18943,18850,70526,109161
2025-05-05 18:06:15.640,119707,18944,18859,70553,109174
2025-05-05 18:06:15.648,119733,18965,18871,70592,109216
2025-05-05 18:06:15.661,119750,18975,18891,70649,109266
2025-05-05 18:06:15.668,119744,18978,18910,70689,109299
2025-05-05 18:06:15.681,119726,18974,18911,70708,109326
2025-05-05 18:06:15.695,119695,18973,18908,70716,109308
2025-05-05 18:06:15.701,119679,18956,18891,70711,109286
2025-05-05 18:06:15.709,119647,18945,18881,70701,109251
2025-05-05 18:06:15.720,119636,18935,18867,70683,109215
2025-05-05 18:06:15.728,119630,18928,18858,70668,109201
2025-05-05 18:06:15.740,119641,18924,18848,70666,109175
2025-05-05 18:06:15.758,119651,18924,18856,70664,109180
2025-05-05 18:06:15.761,119675,18929,18859,70680,109190
2025-05-05 18:06:15.768,119700,18944,18875,70700,109228
2025-05-05 18:06:15.780,119722,18957,18893,70747,109274
2025-05-05 18:06:15.788,119714,18969,18918,70783,109314
2025-05-05 18:06:15.800,119718,18976,18927,70795,109329
2025-05-05 18:06:15.822,119701,18968,18930,70794,109334
2025-05-05 18:06:15.823,119683,18960,18916,70772,109297
2025-05-05 18:06:15.828,119671,18955,18907,70748,109274
2025-05-05 18:06:15.840,119668,18958,18904,70736,109254
2025-05-05 18:06:15.849,119680,18959,18900,70745,109267
2025-05-05 18:06:15.860,119708,18967,18914,70757,109286
2025-05-05 18:06:15.868,119714,18974,18928,70785,109324
2025-05-05 18:06:15.884,119715,18979,18935,70791,109326
2025-05-05 18:06:15.889,119710,18986,18935,70792,109321
2025-05-05 18:06:15.900,119707,18984,18941,70802,109334
2025-05-05 18:06:15.908,119713,18987,18945,70814,109342
2025-05-05 18:06:15.920,119713,18978,18944,70815,109334
2025-05-05 18:06:15.928,119697,18982,18940,70820,109323
2025-05-05 18:06:15.947,119698,18983,18937,70812,109315
2025-05-05 18:06:15.948,119700,18979,18936,70810,109310
2025-05-05 18:06:15.961,119699,18981,18936,70802,109292
2025-05-05 18:06:15.974,119711,18981,18942,70810,109315
2025-05-05 18:06:15.980,119709,18991,18939,70821,109334
2025-05-05 18:06:15.992,119717,18995,18950,70825,109334
2025-05-05 18:06:16.009,119726,19000,18959,70836,109338
2025-05-05 18:06:16.012,119726,19003,18967,70840,109333
2025-05-05 18:06:16.020,119731,19012,18970,70840,109364
2025-05-05 18:06:16.025,119731,19012,18970,70840,109364
2025-05-05 18:06:16.032,119722,19013,18979,70864,109371
2025-05-05 18:06:16.041,119712,19016,18973,70861,109352
2025-05-05 18:06:16.052,119717,19017,18971,70839,109362
2025-05-05 18:06:16.072,119734,19017,18979,70857,109361
2025-05-05 18:06:16.074,119737,19027,18982,70858,109372
2025-05-05 18:06:16.080,119749,19030,18986,70855,109382
2025-05-05 18:06:16.091,119746,19034,18996,70854,109383
2025-05-05 18:06:16.100,119759,19038,18998,70853,109383
2025-05-05 18:06:16.113,119745,19041,19003,70846,109394
2025-05-05 18:06:16.120,119760,19044,19007,70848,109396
2025-05-05 18:06:16.135,119766,19050,19007,70841,109404
2025-05-05 18:06:16.141,119747,19055,19016,70849,109417
2025-05-05 18:06:16.152,119765,19063,19021,70840,109420
2025-05-05 18:06:16.161,119767,19067,19028,70844,109434
2025-05-05 18:06:16.173,119777,19068,19029,70830,109433
2025-05-05 18:06:16.180,119771,19070,19035,70827,109440
2025-05-05 18:06:16.198,119767,19075,19034,70814,109448
2025-05-05 18:06:16.200,119776,19081,19042,70812,109442
2025-05-05 18:06:16.212,119781,19080,19046,70797,109466
2025-05-05 18:06:16.220,119783,19087,19049,70791,109469
2025-05-05 18:06:16.232,119789,19094,19057,70786,109463
2025-05-05 18:06:16.240,119802,19098,19059,70788,109496
2025-05-05 18:06:16.261,119795,19100,19065,70783,109489
2025-05-05 18:06:16.262,119810,19100,19060,70764,109480
2025-05-05 18:06:16.273,119800,19101,19064,70758,109484
2025-05-05 18:06:16.280,119795,19106,19066,70742,109474
2025-05-05 18:06:16.292,119807,19108,19069,70737,109479
2025-05-05 18:06:16.304,119813,19112,19079,70727,109499
2025-05-05 18:06:16.324,119822,19128,19087,70734,109519
2025-05-05 18:06:16.325,119833,19131,19099,70740,109516
2025-05-05 18:06:16.333,119837,19139,19102,70744,109551
2025-05-05 18:06:16.344,119848,19135,19107,70735,109545
2025-05-05 18:06:16.353,119846,19141,19106,70723,109546
2025-05-05 18:06:16.364,119849,19141,19111,70712,109554
2025-05-05 18:06:16.372,119843,19148,19115,70712,109558
2025-05-05 18:06:16.386,119851,19150,19116,70702,109543
2025-05-05 18:06:16.393,119843,19152,19116,70699,109560
2025-05-05 18:06:16.404,119835,19153,19114,70674,109547
2025-05-05 18:06:16.412,119837,19148,19109,70672,109539
2025-05-05 18:06:16.424,119830,19143,19113,70643,109531
2025-05-05 18:06:16.432,119829,19144,19105,70618,109506
2025-05-05 18:06:16.449,119819,19138,19102,70609,109498
2025-05-05 18:06:16.453,119822,19138,19102,70597,109488
2025-05-05 18:06:16.463,119810,19135,19104,70581,109503
2025-05-05 18:06:16.472,119822,19129,19099,70577,109501
2025-05-05 18:06:16.484,119819,19126,19092,70565,109501
2025-05-05 18:06:16.492,119807,19118,19090,70557,109508
2025-05-05 18:06:16.512,119804,19115,19077,70536,109501
2025-05-05 18:06:16.514,119807,19112,19076,70533,109494
2025-05-05 18:06:16.524,119810,19104,19072,70525,109492
2025-05-05 18:06:16.532,119819,19104,19067,70515,109511
2025-05-05 18:06:16.543,119829,19105,19061,70506,109515
2025-05-05 18:06:16.552,119838,19105,19066,70501,109517
2025-05-05 18:06:16.575,119843,19111,19071,70511,109534
2025-05-05 18:06:16.576,119861,19116,19079,70516,109565
2025-05-05 18:06:16.584,119843,19117,19083,70528,109561
2025-05-05 18:06:16.592,119842,19116,19082,70530,109575
2025-05-05 18:06:16.604,119843,19120,19078,70517,109571
2025-05-05 18:06:16.612,119837,19118,19079,70505,109571
2025-05-05 18:06:16.623,119844,19120,19077,70514,109573
2025-05-05 18:06:16.639,119843,19117,19081,70512,109571
2025-05-05 18:06:16.644,119851,19118,19080,70513,109590
2025-05-05 18:06:16.655,119849,19121,19078,70506,109603
2025-05-05 18:06:16.664,119851,19120,19082,70500,109599
2025-05-05 18:06:16.676,119861,19126,19082,70501,109590
2025-05-05 18:06:16.683,119886,19135,19091,70501,109614
2025-05-05 18:06:16.702,119899,19136,19098,70528,109613
2025-05-05 18:06:16.704,119910,19143,19110,70524,109629
2025-05-05 18:06:16.716,119909,19148,19116,70530,109626
2025-05-05 18:06:16.724,119907,19153,19114,70533,109639
2025-05-05 18:06:16.736,119924,19155,19124,70549,109636
2025-05-05 18:06:16.744,119917,19151,19127,70545,109635
2025-05-05 18:06:16.764,119918,19156,19123,70547,109628
2025-05-05 18:06:16.765,119923,19155,19126,70551,109617
2025-05-05 18:06:16.776,119934,19157,19122,70555,109626
2025-05-05 18:06:16.784,119909,19163,19131,70567,109630
2025-05-05 18:06:16.796,119911,19160,19131,70563,109626
2025-05-05 18:06:16.804,119912,19164,19132,70565,109630
2025-05-05 18:06:16.826,119901,19164,19130,70580,109638
2025-05-05 18:06:16.827,119912,19163,19129,70577,109627
2025-05-05 18:06:16.836,119884,19167,19124,70583,109632
2025-05-05 18:06:16.844,119893,19167,19125,70587,109637
2025-05-05 18:06:16.855,119904,19173,19127,70594,109635
2025-05-05 18:06:16.863,119910,19178,19129,70606,109642
2025-05-05 18:06:16.875,119905,19175,19134,70607,109648
2025-05-05 18:06:16.889,119903,19181,19137,70618,109642
2025-05-05 18:06:16.895,119900,19179,19139,70621,109639
2025-05-05 18:06:16.903,119898,19180,19133,70625,109635
2025-05-05 18:06:16.916,119907,19177,19133,70626,109634
2025-05-05 18:06:16.923,119904,19188,19134,70631,109641
2025-05-05 18:06:16.936,119925,19192,19141,70653,109655
2025-05-05 18:06:16.952,119920,19191,19144,70658,109665
2025-05-05 18:06:16.955,119914,19199,19149,70664,109662
2025-05-05 18:06:16.964,119918,19194,19146,70664,109652
2025-05-05 18:06:16.976,119917,19200,19145,70659,109649
2025-05-05 18:06:16.987,119928,19199,19147,70654,109644
2025-05-05 18:06:16.996,119929,19202,19148,70655,109644
2025-05-05 18:06:17.015,119932,19205,19152,70658,109652
2025-05-05 18:06:17.016,119956,19211,19162,70664,109652
2025-05-05 18:06:17.027,119938,19221,19167,70674,109661
2025-05-05 18:06:17.035,119937,19224,19172,70678,109673
2025-05-05 18:06:17.048,119941,19224,19174,70684,109687
2025-05-05 18:06:17.055,119959,19227,19174,70687,109686
2025-05-05 18:06:17.078,119962,19230,19182,70691,109674
2025-05-05 18:06:17.079,119964,19241,19181,70697,109702
2025-05-05 18:06:17.088,119974,19244,19190,70700,109708
2025-05-05 18:06:17.096,119975,19247,19196,70708,109724
2025-05-05 18:06:17.108,119973,19257,19205,70718,109720
2025-05-05 18:06:17.115,119962,19255,19202,70712,109707
2025-05-05 18:06:17.127,119970,19251,19199,70696,109688
2025-05-05 18:06:17.141,119962,19256,19198,70696,109681
2025-05-05 18:06:17.148,119959,19255,19197,70686,109683
2025-05-05 18:06:17.155,119976,19261,19203,70708,109681
2025-05-05 18:06:17.168,119980,19263,19206,70704,109697
2025-05-05 18:06:17.175,119990,19274,19213,70716,109696
2025-05-05 18:06:17.187,120002,19279,19221,70731,109705
2025-05-05 18:06:17.204,120025,19287,19236,70747,109722
2025-05-05 18:06:17.208,120015,19297,19240,70760,109750
2025-05-05 18:06:17.216,120033,19300,19252,70778,109752
2025-05-05 18:06:17.227,120025,19310,19252,70781,109762
2025-05-05 18:06:17.232,120025,19310,19252,70781,109762
2025-05-05 18:06:17.236,120028,19318,19257,70790,109780
2025-05-05 18:06:17.247,120027,19317,19271,70795,109789
2025-05-05 18:06:17.267,120019,19320,19259,70796,109778
2025-05-05 18:06:17.268,120020,19322,19266,70796,109783
2025-05-05 18:06:17.276,120018,19322,19263,70791,109778
2025-05-05 18:06:17.287,120020,19325,19264,70781,109770
2025-05-05 18:06:17.296,120017,19323,19265,70772,109748
2025-05-05 18:06:17.307,120025,19323,19260,70767,109743
2025-05-05 18:06:17.329,120011,19321,19260,70759,109735
2025-05-05 18:06:17.330,120014,19320,19255,70749,109718
2025-05-05 18:06:17.339,119998,19313,19250,70732,109710
2025-05-05 18:06:17.347,119981,19307,19238,70722,109675
2025-05-05 18:06:17.359,119988,19294,19228,70702,109661
2025-05-05 18:06:17.367,119976,19296,19221,70700,109677
2025-05-05 18:06:17.392,119979,19293,19217,70689,109662
2025-05-05 18:06:17.393,119999,19293,19217,70697,109663
2025-05-05 18:06:17.399,119984,19288,19221,70704,109676
2025-05-05 18:06:17.407,119995,19287,19211,70705,109673
2025-05-05 18:06:17.420,119997,19280,19205,70695,109663
2025-05-05 18:06:17.427,119994,19284,19202,70697,109661
2025-05-05 18:06:17.439,119999,19276,19198,70694,109662
2025-05-05 18:06:17.454,120003,19275,19194,70690,109668
2025-05-05 18:06:17.459,120007,19274,19193,70698,109677
2025-05-05 18:06:17.467,120012,19279,19193,70711,109693
2025-05-05 18:06:17.479,120009,19283,19193,70712,109694
2025-05-05 18:06:17.488,120010,19283,19197,70728,109705
2025-05-05 18:06:17.500,120006,19278,19194,70728,109713
2025-05-05 18:06:17.516,119996,19278,19186,70720,109702
2025-05-05 18:06:17.520,119989,19274,19182,70708,109688
2025-05-05 18:06:17.527,120004,19274,19181,70714,109686
2025-05-05 18:06:17.539,119993,19273,19179,70708,109687
2025-05-05 18:06:17.548,120005,19274,19181,70721,109691
2025-05-05 18:06:17.559,120008,19284,19181,70734,109702
2025-05-05 18:06:17.579,120028,19291,19192,70737,109710
2025-05-05 18:06:17.580,120058,19296,19198,70752,109735
2025-05-05 18:06:17.587,120049,19291,19207,70757,109723
2025-05-05 18:06:17.599,120069,19297,19212,70752,109727
2025-05-05 18:06:17.607,120069,19300,19214,70760,109723
2025-05-05 18:06:17.619,120074,19306,19216,70761,109717
2025-05-05 18:06:17.642,120078,19309,19218,70770,109722
2025-05-05 18:06:17.643,120077,19308,19216,70762,109726
2025-05-05 18:06:17.647,120073,19311,19218,70762,109719
2025-05-05 18:06:17.659,120071,19313,19217,70767,109705
2025-05-05 18:06:17.667,120074,19314,19216,70772,109710
2025-05-05 18:06:17.679,120083,19321,19218,70784,109737
2025-05-05 18:06:17.691,120069,19325,19222,70792,109741
2025-05-05 18:06:17.705,120089,19323,19228,70792,109746
2025-05-05 18:06:17.711,120080,19323,19228,70796,109735
2025-05-05 18:06:17.719,120066,19321,19220,70781,109736
2025-05-05 18:06:17.731,120063,19323,19220,70777,109729
2025-05-05 18:06:17.739,120057,19327,19217,70788,109726
2025-05-05 18:06:17.751,120071,19320,19215,70782,109732
2025-05-05 18:06:17.768,120078,19325,19217,70788,109725
2025-05-05 18:06:17.770,120065,19330,19217,70793,109745
2025-05-05 18:06:17.779,120067,19335,19225,70798,109746
2025-05-05 18:06:17.791,120089,19338,19226,70810,109766
2025-05-05 18:06:17.799,120068,19343,19230,70813,109758
2025-05-05 18:06:17.811,120060,19339,19227,70800,109747
2025-05-05 18:06:17.831,120061,19344,19224,70803,109755
2025-05-05 18:06:17.832,120065,19350,19228,70815,109749
2025-05-05 18:06:17.839,120072,19347,19232,70823,109759
2025-05-05 18:06:17.851,120081,19352,19239,70815,109763
2025-05-05 18:06:17.859,120061,19354,19237,70815,109756
2025-05-05 18:06:17.871,120088,19354,19237,70810,109757
2025-05-05 18:06:17.879,120082,19360,19240,70810,109752
2025-05-05 18:06:17.894,120091,19364,19237,70814,109769
2025-05-05 18:06:17.899,120105,19368,19251,70819,109775
2025-05-05 18:06:17.912,120095,19380,19257,70826,109782
2025-05-05 18:06:17.919,120093,19380,19257,70836,109786
2025-05-05 18:06:17.932,120086,19384,19257,70828,109788
2025-05-05 18:06:17.939,120083,19385,19256,70832,109787
2025-05-05 18:06:17.958,120092,19389,19261,70828,109782
2025-05-05 18:06:17.959,120094,19390,19255,70824,109787
2025-05-05 18:06:17.972,120088,19389,19258,70827,109779
2025-05-05 18:06:17.979,120121,19392,19266,70825,109780
2025-05-05 18:06:17.991,120110,19399,19266,70831,109795
2025-05-05 18:06:18.000,120116,19405,19273,70832,109797
2025-05-05 18:06:18.021,120108,19408,19279,70837,109793
2025-05-05 18:06:18.022,120112,19407,19275,70834,109801
2025-05-05 18:06:18.032,120116,19413,19280,70834,109815
2025-05-05 18:06:18.038,120128,19414,19284,70837,109806
2025-05-05 18:06:18.051,120117,19416,19283,70837,109812
2025-05-05 18:06:18.059,120119,19426,19287,70841,109821
2025-05-05 18:06:18.086,120122,19429,19290,70843,109825
2025-05-05 18:06:18.087,120128,19434,19298,70860,109823
2025-05-05 18:06:18.091,120136,19440,19297,70861,109841
2025-05-05 18:06:18.102,120132,19441,19301,70859,109840
2025-05-05 18:06:18.110,120128,19439,19308,70857,109846
2025-05-05 18:06:18.123,120134,19448,19308,70852,109823
2025-05-05 18:06:18.131,120145,19447,19313,70852,109830
2025-05-05 18:06:18.148,120159,19456,19313,70848,109839
2025-05-05 18:06:18.151,120147,19460,19316,70858,109850
2025-05-05 18:06:18.163,120169,19470,19327,70858,109851
2025-05-05 18:06:18.171,120172,19472,19329,70869,109850
2025-05-05 18:06:18.182,120179,19474,19334,70865,109849
2025-05-05 18:06:18.191,120174,19481,19338,70875,109844
2025-05-05 18:06:18.211,120167,19481,19337,70872,109854
2025-05-05 18:06:18.212,120140,19472,19332,70859,109857
2025-05-05 18:06:18.222,120125,19477,19326,70834,109828
2025-05-05 18:06:18.230,120116,19467,19320,70826,109807
2025-05-05 18:06:18.243,120123,19470,19315,70817,109800
2025-05-05 18:06:18.251,120113,19461,19307,70800,109786
2025-05-05 18:06:18.275,120112,19461,19305,70796,109762
2025-05-05 18:06:18.276,120105,19459,19299,70797,109774
2025-05-05 18:06:18.282,120120,19455,19299,70795,109764
2025-05-05 18:06:18.291,120118,19457,19294,70799,109775
2025-05-05 18:06:18.303,120114,19458,19296,70802,109755
2025-05-05 18:06:18.310,120113,19453,19285,70807,109779
2025-05-05 18:06:18.323,120107,19453,19283,70814,109803
2025-05-05 18:06:18.339,120115,19450,19284,70826,109790
2025-05-05 18:06:18.342,120115,19451,19282,70831,109792
2025-05-05 18:06:18.351,120106,19451,19277,70828,109792
2025-05-05 18:06:18.363,120109,19448,19271,70828,109797
2025-05-05 18:06:18.371,120102,19450,19272,70833,109802
2025-05-05 18:06:18.382,120102,19448,19268,70839,109799
2025-05-05 18:06:18.402,120114,19454,19267,70853,109804
2025-05-05 18:06:18.403,120109,19450,19274,70858,109823
2025-05-05 18:06:18.410,120106,19451,19269,70868,109822
2025-05-05 18:06:18.423,120104,19452,19265,70857,109821
2025-05-05 18:06:18.435,120109,19447,19257,70868,109823
2025-05-05 18:06:18.442,120101,19447,19261,70861,109824
2025-05-05 18:06:18.465,120113,19452,19258,70875,109823
2025-05-05 18:06:18.466,120117,19455,19261,70881,109848
2025-05-05 18:06:18.475,120121,19458,19264,70888,109834
2025-05-05 18:06:18.482,120116,19466,19267,70904,109861
2025-05-05 18:06:18.494,120123,19467,19277,70908,109859
2025-05-05 18:06:18.504,120116,19463,19276,70912,109868
2025-05-05 18:06:18.528,120120,19469,19276,70913,109865
2025-05-05 18:06:18.529,120101,19464,19272,70911,109864
2025-05-05 18:06:18.535,120101,19459,19268,70906,109845
2025-05-05 18:06:18.543,120080,19460,19261,70896,109845
2025-05-05 18:06:18.554,120085,19459,19260,70892,109836
2025-05-05 18:06:18.562,120086,19454,19252,70885,109834
2025-05-05 18:06:18.575,120092,19453,19251,70885,109829
2025-05-05 18:06:18.591,120102,19454,19255,70904,109821
2025-05-05 18:06:18.594,120103,19457,19255,70903,109829
2025-05-05 18:06:18.603,120104,19458,19255,70901,109838
2025-05-05 18:06:18.615,120106,19457,19258,70909,109842
2025-05-05 18:06:18.623,120101,19458,19259,70903,109829
2025-05-05 18:06:18.635,120095,19458,19258,70916,109840
2025-05-05 18:06:18.638,120095,19458,19258,70916,109840
2025-05-05 18:06:18.654,120087,19463,19254,70905,109834
2025-05-05 18:06:18.655,120099,19462,19254,70913,109837
2025-05-05 18:06:18.662,120100,19462,19258,70916,109847
2025-05-05 18:06:18.675,120102,19470,19259,70919,109850
2025-05-05 18:06:18.683,120118,19468,19254,70924,109861
2025-05-05 18:06:18.695,120098,19472,19258,70928,109864
2025-05-05 18:06:18.703,120115,19474,19268,70937,109862
2025-05-05 18:06:18.718,120114,19476,19264,70937,109869
2025-05-05 18:06:18.723,120100,19478,19263,70930,109858
2025-05-05 18:06:18.734,120106,19474,19263,70932,109868
2025-05-05 18:06:18.743,120100,19475,19265,70932,109863
2025-05-05 18:06:18.755,120107,19481,19259,70931,109858
2025-05-05 18:06:18.762,120125,19485,19258,70922,109871
2025-05-05 18:06:18.780,120132,19487,19269,70927,109876
2025-05-05 18:06:18.783,120137,19495,19276,70934,109882
2025-05-05 18:06:18.794,120142,19496,19280,70940,109878
2025-05-05 18:06:18.806,120144,19509,19289,70951,109895
2025-05-05 18:06:18.815,120148,19508,19293,70955,109913
2025-05-05 18:06:18.826,120148,19510,19293,70950,109920
2025-05-05 18:06:18.843,120140,19513,19299,70943,109920
2025-05-05 18:06:18.847,120143,19516,19294,70949,109924
2025-05-05 18:06:18.854,120145,19520,19301,70948,109920
2025-05-05 18:06:18.866,120136,19522,19302,70950,109928
2025-05-05 18:06:18.875,120147,19532,19304,70943,109952
2025-05-05 18:06:18.886,120163,19533,19305,70951,109950
2025-05-05 18:06:18.905,120168,19531,19317,70945,109957
2025-05-05 18:06:18.906,120153,19536,19312,70945,109959
2025-05-05 18:06:18.914,120161,19534,19310,70931,109950
2025-05-05 18:06:18.927,120144,19533,19313,70926,109962
2025-05-05 18:06:18.935,120156,19538,19318,70921,109956
2025-05-05 18:06:18.946,120169,19541,19323,70914,109968
2025-05-05 18:06:18.954,120166,19545,19323,70917,109953
2025-05-05 18:06:18.968,120162,19550,19332,70919,109957
2025-05-05 18:06:18.975,120171,19554,19334,70908,109969
2025-05-05 18:06:18.986,120182,19560,19339,70911,109977
2025-05-05 18:06:18.995,120187,19565,19336,70912,109980
2025-05-05 18:06:19.007,120182,19560,19337,70918,109981
2025-05-05 18:06:19.014,120176,19566,19349,70913,109992
2025-05-05 18:06:19.033,120182,19571,19349,70914,109987
2025-05-05 18:06:19.034,120190,19578,19346,70918,110006
2025-05-05 18:06:19.047,120181,19573,19352,70912,110000
2025-05-05 18:06:19.054,120182,19577,19349,70903,109999
2025-05-05 18:06:19.066,120182,19577,19345,70901,109984
2025-05-05 18:06:19.075,120187,19573,19345,70887,109994
2025-05-05 18:06:19.097,120175,19570,19338,70869,109972
2025-05-05 18:06:19.098,120163,19563,19331,70846,109965
2025-05-05 18:06:19.107,120150,19561,19328,70829,109936
2025-05-05 18:06:19.114,120146,19553,19315,70816,109908
2025-05-05 18:06:19.126,120140,19550,19306,70804,109899
2025-05-05 18:06:19.135,120124,19543,19307,70785,109882
2025-05-05 18:06:19.159,120121,19538,19300,70781,109883
2025-05-05 18:06:19.160,120131,19532,19284,70766,109859
2025-05-05 18:06:19.167,120129,19527,19278,70756,109862
2025-05-05 18:06:19.178,120126,19523,19268,70750,109844
2025-05-05 18:06:19.186,120134,19521,19261,70747,109836
2025-05-05 18:06:19.198,120132,19516,19251,70743,109842
2025-05-05 18:06:19.207,120134,19514,19250,70736,109830
2025-05-05 18:06:19.222,120131,19512,19248,70734,109846
2025-05-05 18:06:19.225,120129,19514,19248,70734,109857
2025-05-05 18:06:19.238,120126,19512,19238,70731,109842
2025-05-05 18:06:19.246,120134,19514,19235,70729,109862
2025-05-05 18:06:19.258,120130,19508,19232,70741,109852
2025-05-05 18:06:19.266,120130,19508,19229,70732,109856
2025-05-05 18:06:19.285,120132,19508,19225,70735,109852
2025-05-05 18:06:19.287,120135,19513,19226,70737,109863
2025-05-05 18:06:19.299,120148,19517,19226,70740,109882
2025-05-05 18:06:19.306,120142,19516,19227,70749,109900
2025-05-05 18:06:19.318,120139,19521,19232,70761,109906
2025-05-05 18:06:19.327,120154,19515,19236,70762,109908
2025-05-05 18:06:19.349,120147,19519,19227,70754,109896
2025-05-05 18:06:19.350,120143,19515,19222,70747,109910
2025-05-05 18:06:19.358,120137,19517,19222,70756,109888
2025-05-05 18:06:19.366,120138,19514,19225,70746,109903
2025-05-05 18:06:19.378,120146,19521,19228,70749,109907
2025-05-05 18:06:19.386,120145,19526,19221,70753,109903
2025-05-05 18:06:19.411,120144,19523,19226,70749,109906
2025-05-05 18:06:19.412,120142,19523,19225,70748,109921
2025-05-05 18:06:19.418,120147,19518,19221,70751,109900
2025-05-05 18:06:19.426,120132,19522,19219,70744,109910
2025-05-05 18:06:19.438,120135,19525,19224,70745,109912
2025-05-05 18:06:19.446,120149,19526,19217,70745,109903
2025-05-05 18:06:19.458,120138,19528,19217,70748,109899
2025-05-05 18:06:19.474,120136,19525,19217,70744,109898
2025-05-05 18:06:19.478,120156,19530,19219,70748,109930
2025-05-05 18:06:19.487,120142,19528,19226,70760,109925
2025-05-05 18:06:19.498,120148,19530,19225,70759,109928
2025-05-05 18:06:19.507,120134,19532,19219,70759,109928
2025-05-05 18:06:19.518,120142,19534,19216,70744,109915
2025-05-05 18:06:19.536,120130,19535,19217,70751,109940
2025-05-05 18:06:19.538,120130,19533,19221,70747,109914
2025-05-05 18:06:19.551,120148,19532,19217,70753,109919
2025-05-05 18:06:19.558,120151,19533,19217,70737,109920
2025-05-05 18:06:19.570,120150,19542,19225,70735,109929
2025-05-05 18:06:19.577,120161,19546,19227,70738,109924
2025-05-05 18:06:19.599,120158,19542,19227,70748,109936
2025-05-05 18:06:19.600,120149,19543,19228,70740,109938
2025-05-05 18:06:19.610,120156,19548,19230,70738,109930
2025-05-05 18:06:19.618,120157,19550,19224,70741,109944
2025-05-05 18:06:19.630,120163,19553,19227,70734,109940
2025-05-05 18:06:19.638,120144,19548,19232,70731,109935
2025-05-05 18:06:19.661,120157,19557,19235,70736,109933
2025-05-05 18:06:19.662,120163,19562,19234,70733,109944
2025-05-05 18:06:19.670,120156,19568,19245,70740,109952
2025-05-05 18:06:19.678,120157,19571,19248,70744,109968
2025-05-05 18:06:19.690,120159,19576,19252,70750,109986
2025-05-05 18:06:19.698,120146,19580,19252,70749,109994
2025-05-05 18:06:19.710,120157,19579,19252,70742,109974
2025-05-05 18:06:19.724,120156,19578,19249,70746,109967
2025-05-05 18:06:19.730,120157,19581,19254,70743,109969
2025-05-05 18:06:19.738,120171,19584,19261,70756,109985
2025-05-05 18:06:19.750,120174,19590,19266,70759,109986
2025-05-05 18:06:19.759,120179,19594,19266,70746,109992
2025-05-05 18:06:19.770,120176,19595,19273,70761,109996
2025-05-05 18:06:19.787,120187,19595,19273,70762,109993
2025-05-05 18:06:19.789,120186,19606,19275,70760,110006
2025-05-05 18:06:19.799,120179,19610,19278,70768,110007
2025-05-05 18:06:19.810,120171,19612,19282,70778,110009
2025-05-05 18:06:19.818,120184,19613,19287,70776,110017
2025-05-05 18:06:19.829,120182,19615,19289,70785,110012
2025-05-05 18:06:19.850,120173,19619,19296,70778,110023
2025-05-05 18:06:19.851,120167,19616,19293,70776,110020
2025-05-05 18:06:19.858,120195,19622,19296,70790,110021
2025-05-05 18:06:19.870,120187,19633,19302,70797,110046
2025-05-05 18:06:19.878,120187,19631,19307,70800,110034
2025-05-05 18:06:19.890,120186,19635,19305,70799,110056
2025-05-05 18:06:19.898,120180,19635,19307,70797,110052
2025-05-05 18:06:19.913,120192,19640,19310,70807,110056
2025-05-05 18:06:19.918,120196,19640,19305,70815,110052
2025-05-05 18:06:19.930,120201,19645,19316,70814,110067
2025-05-05 18:06:19.942,120204,19648,19318,70815,110078
2025-05-05 18:06:19.949,120207,19647,19319,70823,110091
2025-05-05 18:06:19.976,120211,19654,19320,70817,110068
2025-05-05 18:06:19.977,120211,19653,19321,70821,110078
2025-05-05 18:06:19.982,120196,19654,19321,70814,110073
2025-05-05 18:06:19.990,120183,19645,19325,70800,110063
2025-05-05 18:06:20.001,120189,19645,19317,70788,110055
2025-05-05 18:06:20.010,120169,19640,19307,70772,110037
2025-05-05 18:06:20.021,120171,19635,19299,70765,110027
2025-05-05 18:06:20.038,120161,19636,19291,70746,110014
2025-05-05 18:06:20.042,120157,19628,19289,70751,110027
2025-05-05 18:06:20.045,120157,19628,19289,70751,110027
2025-05-05 18:06:20.049,120156,19621,19272,70744,110010
2025-05-05 18:06:20.061,120151,19621,19262,70748,109999
2025-05-05 18:06:20.070,120155,19616,19256,70744,110027
2025-05-05 18:06:20.082,120158,19617,19249,70751,110019
2025-05-05 18:06:20.100,120145,19617,19249,70756,110021
2025-05-05 18:06:20.101,120146,19609,19236,70753,110023
2025-05-05 18:06:20.110,120137,19610,19223,70751,110022
2025-05-05 18:06:20.122,120131,19599,19217,70744,110009
2025-05-05 18:06:20.130,120152,19600,19213,70752,110028
2025-05-05 18:06:20.141,120159,19600,19205,70758,110031
2025-05-05 18:06:20.163,120144,19603,19205,70771,110047
2025-05-05 18:06:20.164,120145,19600,19210,70767,110045
2025-05-05 18:06:20.169,120150,19595,19206,70771,110043
2025-05-05 18:06:20.182,120142,19593,19190,70763,110039
2025-05-05 18:06:20.189,120136,19591,19187,70751,110044
2025-05-05 18:06:20.202,120145,19586,19192,70756,110042
2025-05-05 18:06:20.209,120140,19586,19182,70756,110030
2025-05-05 18:06:20.226,120138,19583,19184,70752,110033
2025-05-05 18:06:20.230,120136,19586,19180,70746,110037
2025-05-05 18:06:20.241,120137,19591,19178,70741,110031
2025-05-05 18:06:20.254,120140,19582,19178,70748,110055
2025-05-05 18:06:20.261,120128,19588,19181,70757,110046
2025-05-05 18:06:20.274,120134,19594,19184,70758,110052
2025-05-05 18:06:20.288,120134,19589,19186,70748,110050
2025-05-05 18:06:20.289,120130,19588,19184,70755,110048
2025-05-05 18:06:20.301,120124,19592,19180,70750,110046
2025-05-05 18:06:20.314,120113,19584,19176,70738,110045
2025-05-05 18:06:20.322,120116,19584,19166,70733,110028
2025-05-05 18:06:20.334,120109,19583,19166,70727,110030
2025-05-05 18:06:20.350,120101,19582,19157,70734,110037
2025-05-05 18:06:20.354,120114,19580,19161,70717,110026
2025-05-05 18:06:20.362,120109,19582,19158,70715,110016
2025-05-05 18:06:20.374,120107,19584,19159,70715,110025
2025-05-05 18:06:20.382,120113,19581,19159,70721,110036
2025-05-05 18:06:20.394,120107,19588,19156,70705,110033
2025-05-05 18:06:20.413,120113,19587,19161,70711,110021
2025-05-05 18:06:20.414,120111,19587,19161,70701,110024
2025-05-05 18:06:20.421,120109,19588,19163,70701,110026
2025-05-05 18:06:20.433,120109,19585,19155,70700,110035
2025-05-05 18:06:20.442,120112,19592,19157,70701,110044
2025-05-05 18:06:20.453,120123,19595,19160,70685,110035
2025-05-05 18:06:20.461,120122,19597,19167,70688,110041
2025-05-05 18:06:20.475,120129,19599,19168,70693,110057
2025-05-05 18:06:20.481,120131,19601,19172,70686,110069
2025-05-05 18:06:20.493,120111,19598,19171,70675,110066
2025-05-05 18:06:20.502,120114,19599,19160,70669,110053
2025-05-05 18:06:20.513,120113,19600,19162,70658,110041
2025-05-05 18:06:20.522,120110,19601,19162,70660,110049
2025-05-05 18:06:20.538,120110,19603,19167,70662,110043
2025-05-05 18:06:20.542,120102,19606,19162,70642,110046
2025-05-05 18:06:20.553,120117,19604,19167,70648,110049
2025-05-05 18:06:20.561,120122,19606,19166,70639,110046
2025-05-05 18:06:20.574,120116,19612,19171,70633,110052
2025-05-05 18:06:20.582,120122,19612,19170,70630,110041
2025-05-05 18:06:20.600,120132,19617,19171,70620,110056
2025-05-05 18:06:20.601,120145,19617,19183,70622,110061
2025-05-05 18:06:20.614,120138,19623,19183,70623,110066
2025-05-05 18:06:20.621,120153,19629,19193,70638,110080
2025-05-05 18:06:20.634,120157,19624,19197,70632,110083
2025-05-05 18:06:20.645,120139,19629,19192,70618,110065
2025-05-05 18:06:20.663,120131,19629,19196,70624,110076
2025-05-05 18:06:20.666,120146,19631,19195,70615,110081
2025-05-05 18:06:20.673,120145,19632,19195,70611,110070
2025-05-05 18:06:20.685,120159,19636,19199,70616,110068
2025-05-05 18:06:20.694,120156,19643,19204,70614,110083
2025-05-05 18:06:20.705,120160,19641,19200,70619,110082
2025-05-05 18:06:20.726,120175,19651,19211,70629,110094
2025-05-05 18:06:20.727,120180,19660,19215,70630,110106
2025-05-05 18:06:20.734,120173,19655,19222,70634,110110
2025-05-05 18:06:20.745,120166,19661,19223,70630,110103
2025-05-05 18:06:20.754,120161,19662,19223,70628,110103
2025-05-05 18:06:20.766,120147,19664,19220,70629,110107
2025-05-05 18:06:20.774,120166,19674,19223,70622,110107
2025-05-05 18:06:20.787,120170,19676,19229,70630,110125
2025-05-05 18:06:20.793,120196,19677,19235,70642,110123
2025-05-05 18:06:20.805,120188,19681,19244,70640,110136
2025-05-05 18:06:20.813,120206,19689,19247,70657,110129
2025-05-05 18:06:20.825,120208,19697,19258,70659,110154
2025-05-05 18:06:20.833,120211,19698,19259,70676,110157
2025-05-05 18:06:20.850,120214,19702,19261,70670,110169
2025-05-05 18:06:20.853,120201,19706,19266,70676,110170
2025-05-05 18:06:20.866,120196,19706,19264,70676,110161
2025-05-05 18:06:20.873,120179,19694,19259,70660,110133
2025-05-05 18:06:20.885,120154,19689,19246,70629,110108
2025-05-05 18:06:20.892,120142,19683,19231,70615,110075
2025-05-05 18:06:20.912,120145,19680,19225,70600,110054
2025-05-05 18:06:20.914,120131,19679,19223,70591,110043
2025-05-05 18:06:20.925,120143,19675,19218,70585,110035
2025-05-05 18:06:20.933,120143,19670,19216,70585,110054
2025-05-05 18:06:20.946,120151,19673,19214,70576,110038
2025-05-05 18:06:20.953,120139,19664,19210,70582,110037
2025-05-05 18:06:20.974,120138,19660,19200,70571,110017
2025-05-05 18:06:20.975,120117,19653,19185,70551,110000
2025-05-05 18:06:20.985,120110,19644,19169,70543,109993
2025-05-05 18:06:20.993,120100,19639,19156,70517,109983
2025-05-05 18:06:21.006,120109,19634,19141,70503,109979
2025-05-05 18:06:21.016,120091,19629,19133,70498,109986
2025-05-05 18:06:21.037,120093,19632,19124,70500,109983
2025-05-05 18:06:21.038,120104,19630,19119,70490,110007
2025-05-05 18:06:21.045,120105,19628,19120,70493,110007
2025-05-05 18:06:21.056,120101,19632,19122,70493,110023
2025-05-05 18:06:21.065,120120,19632,19117,70484,110034
2025-05-05 18:06:21.077,120121,19632,19117,70486,110038
2025-05-05 18:06:21.084,120099,19631,19116,70479,110050
2025-05-05 18:06:21.100,120109,19623,19109,70473,110034
2025-05-05 18:06:21.106,120085,19622,19105,70461,110045
2025-05-05 18:06:21.117,120091,19615,19101,70458,110023
2025-05-05 18:06:21.125,120088,19614,19091,70432,110030
2025-05-05 18:06:21.137,120089,19614,19091,70433,110010
2025-05-05 18:06:21.145,120087,19616,19091,70442,110030
2025-05-05 18:06:21.163,120091,19621,19093,70433,110041
2025-05-05 18:06:21.164,120091,19619,19087,70444,110030
2025-05-05 18:06:21.177,120082,19621,19095,70434,110033
2025-05-05 18:06:21.185,120091,19622,19093,70438,110036
2025-05-05 18:06:21.197,120111,19624,19090,70431,110042
2025-05-05 18:06:21.205,120091,19621,19095,70434,110048
2025-05-05 18:06:21.225,120084,19623,19092,70435,110047
2025-05-05 18:06:21.226,120095,19624,19091,70427,110059
2025-05-05 18:06:21.237,120085,19620,19092,70425,110042
2025-05-05 18:06:21.245,120076,19621,19086,70422,110044
2025-05-05 18:06:21.257,120102,19621,19089,70409,110031
2025-05-05 18:06:21.265,120095,19620,19084,70411,110042
2025-05-05 18:06:21.287,120095,19623,19095,70421,110048
2025-05-05 18:06:21.289,120091,19623,19092,70416,110058
2025-05-05 18:06:21.297,120093,19623,19086,70408,110050
2025-05-05 18:06:21.305,120087,19622,19088,70405,110058
2025-05-05 18:06:21.316,120081,19623,19092,70405,110054
2025-05-05 18:06:21.326,120085,19619,19086,70395,110046
2025-05-05 18:06:21.350,120088,19618,19080,70383,110061
2025-05-05 18:06:21.351,120083,19617,19095,70379,110040
2025-05-05 18:06:21.356,120093,19619,19089,70374,110042
2025-05-05 18:06:21.365,120081,19617,19085,70358,110048
2025-05-05 18:06:21.377,120093,19622,19085,70363,110040
2025-05-05 18:06:21.389,120082,19621,19086,70348,110030
2025-05-05 18:06:21.397,120073,19615,19082,70345,110047
2025-05-05 18:06:21.413,120072,19617,19077,70336,110028
2025-05-05 18:06:21.418,120087,19618,19077,70328,110033
2025-05-05 18:06:21.429,120079,19617,19073,70328,110044
2025-05-05 18:06:21.436,120101,19621,19081,70316,110042
2025-05-05 18:06:21.449,120107,19625,19077,70324,110043
2025-05-05 18:06:21.452,120107,19625,19077,70324,110043
2025-05-05 18:06:21.456,120124,19632,19093,70333,110071
2025-05-05 18:06:21.475,120107,19634,19095,70320,110074
2025-05-05 18:06:21.477,120105,19633,19103,70319,110065
2025-05-05 18:06:21.488,120105,19633,19101,70309,110067
2025-05-05 18:06:21.497,120080,19632,19097,70307,110039
2025-05-05 18:06:21.509,120087,19628,19092,70288,110027
2025-05-05 18:06:21.516,120084,19630,19089,70263,110035
2025-05-05 18:06:21.538,120086,19636,19088,70282,110041
2025-05-05 18:06:21.539,120100,19635,19093,70281,110059
2025-05-05 18:06:21.549,120096,19648,19097,70281,110038
2025-05-05 18:06:21.557,120106,19644,19101,70289,110061
2025-05-05 18:06:21.569,120103,19646,19107,70283,110062
2025-05-05 18:06:21.577,120108,19643,19106,70281,110046
2025-05-05 18:06:21.600,120112,19643,19107,70271,110058
2025-05-05 18:06:21.602,120105,19646,19104,70268,110042
2025-05-05 18:06:21.610,120090,19646,19106,70261,110039
2025-05-05 18:06:21.617,120106,19647,19108,70264,110028
2025-05-05 18:06:21.629,120098,19650,19113,70262,110039
2025-05-05 18:06:21.637,120093,19652,19115,70257,110027
2025-05-05 18:06:21.649,120105,19654,19115,70262,110029
2025-05-05 18:06:21.663,120109,19655,19114,70271,110047
2025-05-05 18:06:21.668,120109,19655,19116,70260,110038
2025-05-05 18:06:21.676,120109,19662,19122,70271,110029
2025-05-05 18:06:21.689,120116,19665,19119,70266,110040
2025-05-05 18:06:21.701,120116,19659,19130,70262,110038
2025-05-05 18:06:21.709,120121,19665,19129,70278,110035
2025-05-05 18:06:21.726,120115,19669,19133,70272,110040
2025-05-05 18:06:21.728,120126,19670,19130,70279,110043
2025-05-05 18:06:21.741,120127,19674,19143,70286,110047
2025-05-05 18:06:21.748,120130,19674,19140,70283,110037
2025-05-05 18:06:21.760,120127,19676,19141,70289,110030
2025-05-05 18:06:21.769,120116,19674,19140,70277,110021
2025-05-05 18:06:21.789,120092,19672,19137,70266,110017
2025-05-05 18:06:21.790,120097,19668,19128,70258,110005
2025-05-05 18:06:21.801,120077,19666,19125,70257,109983
2025-05-05 18:06:21.808,120056,19657,19120,70250,109972
2025-05-05 18:06:21.820,120050,19651,19105,70240,109961
2025-05-05 18:06:21.829,120039,19638,19093,70230,109955
2025-05-05 18:06:21.851,120036,19634,19074,70212,109921
2025-05-05 18:06:21.853,120030,19627,19065,70210,109922
2025-05-05 18:06:21.861,120043,19625,19060,70212,109916
2025-05-05 18:06:21.868,120047,19623,19053,70228,109924
2025-05-05 18:06:21.881,120047,19619,19046,70230,109917
2025-05-05 18:06:21.889,120035,19612,19037,70223,109912
2025-05-05 18:06:21.900,120021,19607,19027,70218,109920
2025-05-05 18:06:21.915,120010,19608,19015,70228,109899
2025-05-05 18:06:21.921,120010,19598,18999,70228,109901
2025-05-05 18:06:21.930,119996,19590,18993,70223,109899
2025-05-05 18:06:21.941,120003,19593,18983,70222,109900
2025-05-05 18:06:21.948,120012,19589,18984,70229,109904
2025-05-05 18:06:21.961,120016,19590,18979,70241,109915
2025-05-05 18:06:21.978,120023,19590,18989,70243,109918
2025-05-05 18:06:21.981,120027,19594,18986,70260,109910
2025-05-05 18:06:21.988,120018,19590,18984,70257,109937
2025-05-05 18:06:22.000,120005,19589,18985,70260,109933
2025-05-05 18:06:22.009,119996,19590,18981,70259,109916
2025-05-05 18:06:22.022,120004,19583,18980,70272,109919
2025-05-05 18:06:22.041,119991,19589,18977,70254,109917
2025-05-05 18:06:22.042,119977,19581,18973,70256,109916
2025-05-05 18:06:22.053,119990,19587,18976,70258,109904
2025-05-05 18:06:22.061,119983,19591,18973,70254,109909
2025-05-05 18:06:22.072,120004,19591,18976,70271,109923
2025-05-05 18:06:22.081,120006,19592,18982,70268,109926
2025-05-05 18:06:22.104,119994,19589,18986,70280,109924
2025-05-05 18:06:22.105,119977,19585,18978,70273,109926
2025-05-05 18:06:22.112,119980,19590,18980,70278,109924
2025-05-05 18:06:22.121,119976,19582,18971,70272,109923
2025-05-05 18:06:22.133,119978,19584,18974,70276,109921
2025-05-05 18:06:22.140,119967,19578,18973,70284,109907
2025-05-05 18:06:22.152,119964,19585,18972,70287,109900
2025-05-05 18:06:22.166,119975,19582,18968,70283,109924
2025-05-05 18:06:22.172,119961,19585,18972,70291,109911
2025-05-05 18:06:22.181,119960,19580,18970,70297,109918
2025-05-05 18:06:22.193,119976,19580,18967,70309,109915
2025-05-05 18:06:22.200,119980,19581,18966,70310,109906
2025-05-05 18:06:22.213,119967,19580,18965,70319,109922
2025-05-05 18:06:22.228,119972,19582,18968,70321,109921
2025-05-05 18:06:22.232,119978,19586,18969,70340,109947
2025-05-05 18:06:22.241,119967,19586,18974,70341,109943
2025-05-05 18:06:22.252,119964,19586,18974,70342,109939
2025-05-05 18:06:22.261,119947,19586,18975,70350,109937
2025-05-05 18:06:22.272,119954,19582,18969,70352,109934
2025-05-05 18:06:22.291,119951,19575,18964,70357,109916
2025-05-05 18:06:22.293,119947,19575,18964,70345,109918
2025-05-05 18:06:22.300,119954,19577,18965,70348,109906
2025-05-05 18:06:22.312,119965,19576,18964,70352,109903
2025-05-05 18:06:22.321,119959,19577,18965,70358,109903
2025-05-05 18:06:22.332,119969,19578,18968,70363,109917
2025-05-05 18:06:22.353,119965,19575,18972,70370,109911
2025-05-05 18:06:22.354,119965,19580,18979,70366,109920
2025-05-05 18:06:22.361,119954,19578,18970,70365,109923
2025-05-05 18:06:22.372,119963,19578,18971,70361,109913
2025-05-05 18:06:22.380,119960,19584,18974,70358,109913
2025-05-05 18:06:22.392,119968,19582,18980,70362,109910
2025-05-05 18:06:22.400,119964,19586,18984,70368,109921
2025-05-05 18:06:22.416,119966,19581,18984,70369,109917
2025-05-05 18:06:22.424,119972,19588,18984,70368,109930
2025-05-05 18:06:22.433,119979,19582,18982,70368,109939
2025-05-05 18:06:22.444,119964,19585,18984,70359,109933
2025-05-05 18:06:22.452,119963,19586,18989,70362,109933
2025-05-05 18:06:22.465,119972,19588,18986,70368,109935
2025-05-05 18:06:22.480,119971,19586,18987,70366,109927
2025-05-05 18:06:22.484,119969,19591,18989,70356,109920
2025-05-05 18:06:22.492,119969,19587,18993,70359,109926
2025-05-05 18:06:22.504,119981,19594,18995,70361,109926
2025-05-05 18:06:22.513,119990,19595,19000,70350,109938
2025-05-05 18:06:22.524,119983,19602,19005,70356,109946
2025-05-05 18:06:22.542,120004,19606,19012,70363,109954
2025-05-05 18:06:22.544,119990,19606,19019,70369,109951
2025-05-05 18:06:22.552,119990,19611,19018,70362,109954
2025-05-05 18:06:22.564,119994,19606,19020,70355,109951
2025-05-05 18:06:22.572,119989,19608,19015,70356,109947
2025-05-05 18:06:22.584,119988,19606,19013,70348,109939
2025-05-05 18:06:22.605,119992,19608,19017,70344,109952
2025-05-05 18:06:22.607,119994,19614,19017,70348,109948
2025-05-05 18:06:22.612,119992,19614,19022,70347,109948
2025-05-05 18:06:22.624,119986,19617,19024,70342,109965
2025-05-05 18:06:22.632,119996,19610,19027,70334,109958
2025-05-05 18:06:22.645,119994,19611,19023,70335,109945
2025-05-05 18:06:22.652,119965,19603,19022,70311,109925
2025-05-05 18:06:22.669,119949,19597,19006,70297,109890
2025-05-05 18:06:22.672,119938,19589,18995,70286,109890
2025-05-05 18:06:22.684,119919,19579,18987,70268,109861
2025-05-05 18:06:22.693,119929,19577,18970,70263,109853
2025-05-05 18:06:22.704,119922,19576,18971,70266,109868
2025-05-05 18:06:22.712,119919,19569,18959,70269,109876
2025-05-05 18:06:22.733,119924,19565,18958,70261,109884
2025-05-05 18:06:22.734,119911,19557,18945,70256,109871
2025-05-05 18:06:22.744,119910,19551,18936,70257,109862
2025-05-05 18:06:22.755,119899,19545,18924,70249,109861
2025-05-05 18:06:22.764,119889,19536,18909,70237,109866
2025-05-05 18:06:22.777,119879,19526,18894,70246,109842
2025-05-05 18:06:22.796,119868,19524,18882,70224,109846
2025-05-05 18:06:22.798,119861,19512,18872,70221,109837
2025-05-05 18:06:22.805,119858,19505,18859,70222,109825
2025-05-05 18:06:22.816,119846,19507,18856,70201,109816
2025-05-05 18:06:22.823,119869,19504,18853,70207,109831
2025-05-05 18:06:22.836,119870,19507,18856,70208,109859
2025-05-05 18:06:22.844,119885,19513,18852,70228,109866
2025-05-05 18:06:22.858,119869,19507,18861,70239,109878
2025-05-05 18:06:22.860,119869,19507,18861,70239,109878
2025-05-05 18:06:22.864,119857,19500,18859,70219,109871
2025-05-05 18:06:22.876,119837,19495,18850,70225,109869
2025-05-05 18:06:22.884,119827,19487,18839,70207,109846
2025-05-05 18:06:22.896,119816,19486,18832,70195,109833
2025-05-05 18:06:22.904,119831,19483,18830,70193,109838
2025-05-05 18:06:22.922,119837,19488,18833,70190,109840
2025-05-05 18:06:22.924,119846,19487,18843,70195,109868
2025-05-05 18:06:22.936,119851,19490,18839,70197,109870
2025-05-05 18:06:22.943,119849,19487,18849,70197,109861
2025-05-05 18:06:22.956,119836,19484,18849,70191,109873
2025-05-05 18:06:22.965,119832,19485,18840,70187,109861
2025-05-05 18:06:22.984,119819,19475,18839,70170,109853
2025-05-05 18:06:22.985,119817,19476,18831,70169,109859
2025-05-05 18:06:22.996,119804,19469,18822,70162,109850
2025-05-05 18:06:23.003,119812,19461,18823,70153,109844
2025-05-05 18:06:23.016,119805,19461,18818,70154,109834
2025-05-05 18:06:23.023,119815,19457,18818,70155,109832
2025-05-05 18:06:23.046,119820,19462,18819,70156,109838
2025-05-05 18:06:23.048,119827,19459,18823,70163,109829
2025-05-05 18:06:23.056,119828,19461,18824,70161,109841
2025-05-05 18:06:23.063,119830,19460,18826,70169,109858
2025-05-05 18:06:23.076,119832,19457,18832,70172,109859
2025-05-05 18:06:23.084,119811,19459,18833,70177,109866
2025-05-05 18:06:23.096,119816,19455,18829,70177,109851
2025-05-05 18:06:23.110,119812,19455,18823,70170,109859
2025-05-05 18:06:23.116,119805,19449,18821,70163,109843
2025-05-05 18:06:23.127,119801,19447,18822,70150,109843
2025-05-05 18:06:23.136,119807,19449,18820,70154,109853
2025-05-05 18:06:23.148,119816,19448,18825,70154,109860
2025-05-05 18:06:23.156,119826,19454,18828,70167,109867
2025-05-05 18:06:23.172,119826,19451,18833,70162,109884
2025-05-05 18:06:23.176,119826,19453,18837,70170,109876
2025-05-05 18:06:23.188,119822,19453,18842,70166,109876
2025-05-05 18:06:23.195,119821,19455,18840,70173,109872
2025-05-05 18:06:23.208,119810,19450,18846,70170,109886
2025-05-05 18:06:23.217,119794,19447,18838,70162,109885
2025-05-05 18:06:23.235,119805,19449,18841,70161,109872
2025-05-05 18:06:23.237,119807,19450,18839,70161,109879
2025-05-05 18:06:23.248,119814,19451,18841,70162,109887
2025-05-05 18:06:23.256,119810,19451,18849,70163,109876
2025-05-05 18:06:23.267,119815,19451,18846,70162,109883
2025-05-05 18:06:23.276,119817,19442,18849,70158,109874
2025-05-05 18:06:23.298,119801,19446,18844,70166,109869
2025-05-05 18:06:23.299,119817,19446,18847,70168,109876
2025-05-05 18:06:23.308,119811,19449,18852,70167,109887
2025-05-05 18:06:23.315,119814,19449,18859,70165,109886
2025-05-05 18:06:23.328,119812,19452,18862,70174,109883
2025-05-05 18:06:23.335,119815,19455,18861,70178,109900
2025-05-05 18:06:23.361,119812,19454,18866,70177,109885
2025-05-05 18:06:23.362,119824,19452,18866,70185,109896
2025-05-05 18:06:23.367,119818,19456,18872,70188,109905
2025-05-05 18:06:23.376,119821,19454,18875,70188,109907
2025-05-05 18:06:23.387,119822,19457,18873,70198,109911
2025-05-05 18:06:23.396,119810,19460,18871,70193,109925
2025-05-05 18:06:23.407,119826,19459,18877,70194,109915
2025-05-05 18:06:23.424,119812,19462,18882,70197,109922
2025-05-05 18:06:23.427,119819,19461,18881,70209,109929
2025-05-05 18:06:23.439,119829,19464,18886,70205,109931
2025-05-05 18:06:23.447,119830,19463,18885,70209,109927
2025-05-05 18:06:23.460,119843,19462,18891,70206,109940
2025-05-05 18:06:23.467,119831,19468,18893,70214,109938
2025-05-05 18:06:23.487,119848,19472,18901,70218,109945
2025-05-05 18:06:23.489,119842,19474,18906,70222,109943
2025-05-05 18:06:23.500,119823,19469,18905,70216,109951
2025-05-05 18:06:23.508,119816,19464,18902,70203,109937
2025-05-05 18:06:23.519,119811,19461,18893,70192,109920
2025-05-05 18:06:23.528,119792,19455,18889,70188,109899
2025-05-05 18:06:23.551,119780,19452,18876,70168,109887
2025-05-05 18:06:23.553,119775,19447,18875,70165,109880
2025-05-05 18:06:23.560,119773,19439,18867,70161,109879
2025-05-05 18:06:23.568,119770,19428,18858,70157,109873
2025-05-05 18:06:23.579,119760,19419,18847,70151,109871
2025-05-05 18:06:23.588,119729,19403,18834,70136,109849
2025-05-05 18:06:23.599,119712,19393,18816,70120,109816
2025-05-05 18:06:23.616,119713,19379,18794,70104,109814
2025-05-05 18:06:23.620,119710,19370,18783,70110,109799
2025-05-05 18:06:23.627,119710,19363,18772,70096,109815
2025-05-05 18:06:23.640,119718,19355,18766,70096,109819
2025-05-05 18:06:23.648,119717,19348,18755,70096,109816
2025-05-05 18:06:23.661,119710,19343,18748,70096,109834
2025-05-05 18:06:23.679,119703,19335,18741,70092,109835
2025-05-05 18:06:23.680,119685,19326,18726,70086,109822
2025-05-05 18:06:23.688,119679,19317,18719,70079,109819
2025-05-05 18:06:23.700,119683,19311,18709,70070,109809
2025-05-05 18:06:23.707,119675,19306,18704,70065,109807
2025-05-05 18:06:23.719,119678,19295,18699,70060,109801
2025-05-05 18:06:23.744,119695,19293,18697,70062,109810
2025-05-05 18:06:23.745,119688,19289,18700,70047,109818
2025-05-05 18:06:23.748,119676,19282,18694,70054,109808
2025-05-05 18:06:23.760,119656,19275,18689,70034,109803
2025-05-05 18:06:23.767,119657,19269,18683,70030,109798
2025-05-05 18:06:23.780,119647,19264,18679,70017,109782
2025-05-05 18:06:23.788,119660,19257,18672,70005,109785
2025-05-05 18:06:23.808,119653,19250,18668,69988,109779
2025-05-05 18:06:23.809,119641,19249,18670,69989,109772
2025-05-05 18:06:23.819,119656,19245,18665,69982,109776
2025-05-05 18:06:23.832,119642,19244,18660,69975,109770
2025-05-05 18:06:23.840,119658,19238,18664,69977,109768
2025-05-05 18:06:23.852,119655,19237,18666,69970,109779
2025-05-05 18:06:23.870,119644,19234,18664,69961,109783
2025-05-05 18:06:23.871,119651,19232,18664,69959,109772
2025-05-05 18:06:23.880,119627,19220,18658,69956,109764
2025-05-05 18:06:23.891,119625,19216,18646,69943,109755
2025-05-05 18:06:23.900,119619,19210,18643,69924,109741
2025-05-05 18:06:23.911,119608,19207,18638,69921,109741
2025-05-05 18:06:23.919,119622,19207,18638,69917,109729
2025-05-05 18:06:23.933,119616,19208,18640,69923,109748
2025-05-05 18:06:23.939,119627,19202,18642,69930,109752
2025-05-05 18:06:23.951,119637,19201,18643,69924,109750
2025-05-05 18:06:23.960,119618,19196,18639,69919,109763
2025-05-05 18:06:23.972,119604,19189,18638,69915,109765
2025-05-05 18:06:23.979,119610,19184,18631,69909,109736
2025-05-05 18:06:23.995,119601,19182,18628,69902,109738
2025-05-05 18:06:23.999,119593,19180,18624,69898,109727
2025-05-05 18:06:24.012,119594,19181,18624,69887,109717
2025-05-05 18:06:24.019,119585,19178,18626,69894,109725
2025-05-05 18:06:24.031,119582,19177,18625,69884,109711
2025-05-05 18:06:24.040,119599,19178,18625,69880,109706
2025-05-05 18:06:24.059,119593,19179,18630,69886,109730
2025-05-05 18:06:24.060,119598,19178,18637,69889,109745
2025-05-05 18:06:24.072,119583,19177,18640,69898,109741
2025-05-05 18:06:24.079,119586,19177,18639,69893,109753
2025-05-05 18:06:24.091,119570,19172,18635,69895,109730
2025-05-05 18:06:24.099,119578,19169,18635,69886,109722
2025-05-05 18:06:24.121,119568,19164,18630,69865,109714
2025-05-05 18:06:24.123,119578,19165,18632,69867,109723
2025-05-05 18:06:24.131,119573,19167,18631,69877,109715
2025-05-05 18:06:24.139,119585,19169,18637,69888,109722
2025-05-05 18:06:24.152,119578,19165,18640,69883,109728
2025-05-05 18:06:24.163,119584,19166,18643,69884,109724
2025-05-05 18:06:24.184,119595,19166,18644,69884,109728
2025-05-05 18:06:24.185,119582,19162,18648,69893,109731
2025-05-05 18:06:24.192,119591,19164,18643,69892,109724
2025-05-05 18:06:24.203,119582,19164,18646,69892,109722
2025-05-05 18:06:24.211,119577,19165,18651,69889,109733
2025-05-05 18:06:24.224,119586,19166,18655,69897,109733
2025-05-05 18:06:24.232,119598,19167,18666,69890,109738
2025-05-05 18:06:24.248,119596,19166,18659,69890,109729
2025-05-05 18:06:24.251,119614,19171,18662,69902,109743
2025-05-05 18:06:24.264,119606,19171,18663,69902,109737
2025-05-05 18:06:24.267,119606,19171,18663,69902,109737
2025-05-05 18:06:24.271,119606,19171,18663,69902,109737
2025-05-05 18:06:24.284,119590,19167,18667,69897,109738
2025-05-05 18:06:24.291,119585,19162,18666,69891,109731
2025-05-05 18:06:24.310,119594,19162,18664,69893,109731
2025-05-05 18:06:24.312,119596,19163,18664,69892,109728
2025-05-05 18:06:24.324,119601,19163,18667,69893,109720
2025-05-05 18:06:24.331,119608,19164,18673,69898,109740
2025-05-05 18:06:24.343,119622,19167,18678,69908,109741
2025-05-05 18:06:24.351,119625,19164,18681,69905,109730
2025-05-05 18:06:24.373,119602,19161,18675,69905,109730
2025-05-05 18:06:24.375,119608,19161,18678,69902,109709
2025-05-05 18:06:24.383,119607,19156,18680,69883,109717
2025-05-05 18:06:24.391,119603,19162,18677,69894,109722
2025-05-05 18:06:24.403,119603,19162,18679,69896,109715
2025-05-05 18:06:24.412,119602,19159,18684,69889,109706
2025-05-05 18:06:24.436,119591,19154,18683,69885,109701
2025-05-05 18:06:24.437,119584,19151,18676,69878,109707
2025-05-05 18:06:24.457,119582,19141,18670,69871,109671
2025-05-05 18:06:24.458,119545,19140,18660,69864,109670
2025-05-05 18:06:24.463,119543,19124,18645,69853,109653
2025-05-05 18:06:24.467,119543,19124,18645,69853,109653
2025-05-05 18:06:24.471,119523,19104,18624,69831,109625
2025-05-05 18:06:24.483,119516,19087,18609,69842,109617
2025-05-05 18:06:24.500,119512,19078,18596,69820,109606
2025-05-05 18:06:24.503,119504,19072,18586,69830,109611
2025-05-05 18:06:24.516,119502,19059,18575,69824,109607
2025-05-05 18:06:24.523,119492,19050,18556,69825,109602
2025-05-05 18:06:24.535,119482,19038,18550,69821,109604
2025-05-05 18:06:24.543,119486,19027,18543,69828,109593
2025-05-05 18:06:24.564,119462,19017,18525,69826,109580
2025-05-05 18:06:24.565,119468,19008,18513,69820,109578
2025-05-05 18:06:24.575,119448,18995,18505,69808,109569
2025-05-05 18:06:24.583,119439,18982,18494,69812,109572
2025-05-05 18:06:24.595,119428,18975,18476,69794,109547
2025-05-05 18:06:24.603,119426,18963,18469,69796,109524
2025-05-05 18:06:24.627,119415,18956,18464,69792,109531
2025-05-05 18:06:24.628,119415,18953,18455,69797,109518
2025-05-05 18:06:24.635,119405,18945,18458,69800,109527
2025-05-05 18:06:24.643,119402,18943,18449,69792,109530
2025-05-05 18:06:24.654,119412,18936,18447,69795,109525
2025-05-05 18:06:24.663,119390,18925,18447,69795,109497
2025-05-05 18:06:24.675,119377,18919,18440,69777,109491
2025-05-05 18:06:24.690,119395,18916,18430,69779,109488
2025-05-05 18:06:24.695,119386,18918,18435,69793,109494
2025-05-05 18:06:24.703,119399,18911,18432,69782,109491
2025-05-05 18:06:24.715,119400,18909,18432,69778,109492
2025-05-05 18:06:24.723,119395,18907,18435,69782,109497
2025-05-05 18:06:24.735,119374,18901,18436,69782,109490
2025-05-05 18:06:24.754,119373,18891,18432,69776,109482
2025-05-05 18:06:24.755,119354,18886,18425,69767,109461
2025-05-05 18:06:24.763,119345,18880,18418,69756,109440
2025-05-05 18:06:24.774,119338,18872,18406,69743,109426
2025-05-05 18:06:24.783,119335,18866,18402,69733,109412
2025-05-05 18:06:24.795,119334,18862,18396,69739,109436
2025-05-05 18:06:24.803,119338,18861,18398,69735,109421
2025-05-05 18:06:24.817,119352,18856,18402,69731,109431
2025-05-05 18:06:24.823,119344,18850,18398,69736,109422
2025-05-05 18:06:24.834,119346,18848,18404,69730,109419
2025-05-05 18:06:24.843,119344,18846,18401,69732,109409
2025-05-05 18:06:24.855,119327,18841,18399,69729,109400
2025-05-05 18:06:24.880,119317,18840,18394,69708,109401
2025-05-05 18:06:24.881,119334,18834,18393,69714,109398
2025-05-05 18:06:24.886,119330,18831,18389,69702,109386
2025-05-05 18:06:24.895,119312,18827,18388,69707,109380
2025-05-05 18:06:24.907,119329,18826,18388,69709,109388
2025-05-05 18:06:24.915,119329,18822,18387,69715,109391
2025-05-05 18:06:24.927,119314,18817,18383,69708,109396
2025-05-05 18:06:24.942,119314,18815,18386,69712,109391
2025-05-05 18:06:24.947,119330,18818,18388,69706,109392
2025-05-05 18:06:24.955,119331,18812,18390,69710,109386
2025-05-05 18:06:24.967,119335,18811,18388,69703,109380
2025-05-05 18:06:24.974,119324,18811,18392,69716,109376
2025-05-05 18:06:24.987,119323,18814,18386,69701,109366
2025-05-05 18:06:25.005,119328,18807,18393,69715,109377
2025-05-05 18:06:25.007,119308,18806,18389,69709,109381
2025-05-05 18:06:25.016,119309,18809,18388,69705,109363
2025-05-05 18:06:25.027,119302,18801,18390,69704,109361
2025-05-05 18:06:25.035,119322,18802,18389,69701,109351
2025-05-05 18:06:25.047,119321,18803,18388,69702,109353
2025-05-05 18:06:25.068,119324,18797,18391,69704,109348
2025-05-05 18:06:25.069,119326,18796,18389,69700,109346
2025-05-05 18:06:25.075,119318,18800,18394,69711,109349
2025-05-05 18:06:25.087,119331,18798,18397,69718,109351
2025-05-05 18:06:25.095,119335,18797,18401,69714,109353
2025-05-05 18:06:25.107,119321,18798,18400,69716,109355
2025-05-05 18:06:25.114,119331,18796,18398,69727,109357
2025-05-05 18:06:25.130,119323,18795,18402,69720,109356
2025-05-05 18:06:25.135,119331,18795,18401,69723,109360
2025-05-05 18:06:25.147,119327,18797,18403,69723,109344
2025-05-05 18:06:25.155,119329,18795,18407,69734,109355
2025-05-05 18:06:25.166,119332,18796,18415,69751,109366
2025-05-05 18:06:25.175,119322,18802,18415,69745,109362
2025-05-05 18:06:25.193,119337,18800,18418,69752,109349
2025-05-05 18:06:25.194,119331,18797,18419,69751,109371
2025-05-05 18:06:25.207,119329,18801,18425,69757,109352
2025-05-05 18:06:25.214,119331,18795,18422,69760,109353
2025-05-05 18:06:25.227,119321,18801,18426,69750,109342
2025-05-05 18:06:25.235,119335,18801,18419,69760,109344
2025-05-05 18:06:25.256,119332,18789,18423,69757,109349
2025-05-05 18:06:25.258,119327,18794,18421,69763,109335
2025-05-05 18:06:25.267,119353,18796,18424,69759,109348
2025-05-05 18:06:25.278,119355,18802,18428,69768,109346
2025-05-05 18:06:25.287,119372,18804,18438,69780,109350
2025-05-05 18:06:25.298,119368,18813,18442,69790,109359
2025-05-05 18:06:25.319,119375,18816,18456,69802,109371
2025-05-05 18:06:25.320,119360,18810,18457,69807,109384
2025-05-05 18:06:25.327,119334,18807,18453,69793,109363
2025-05-05 18:06:25.339,119311,18791,18441,69773,109328
2025-05-05 18:06:25.346,119285,18779,18421,69750,109306
2025-05-05 18:06:25.359,119260,18764,18406,69729,109276
2025-05-05 18:06:25.367,119251,18751,18385,69715,109233
2025-05-05 18:06:25.383,119248,18740,18369,69702,109221
2025-05-05 18:06:25.386,119250,18728,18359,69705,109234
2025-05-05 18:06:25.398,119239,18715,18347,69701,109209
2025-05-05 18:06:25.407,119238,18701,18338,69708,109199
2025-05-05 18:06:25.419,119243,18697,18324,69690,109214
2025-05-05 18:06:25.426,119232,18684,18319,69701,109201
2025-05-05 18:06:25.445,119226,18673,18306,69689,109202
2025-05-05 18:06:25.447,119214,18659,18290,69685,109173
2025-05-05 18:06:25.459,119189,18648,18278,69672,109174
2025-05-05 18:06:25.466,119180,18633,18263,69673,109149
2025-05-05 18:06:25.478,119170,18626,18252,69658,109152
2025-05-05 18:06:25.487,119167,18617,18243,69653,109138
2025-05-05 18:06:25.508,119182,18616,18235,69660,109135
2025-05-05 18:06:25.509,119181,18614,18239,69672,109141
2025-05-05 18:06:25.519,119183,18607,18238,69674,109151
2025-05-05 18:06:25.527,119183,18597,18239,69675,109149
2025-05-05 18:06:25.538,119167,18588,18231,69681,109144
2025-05-05 18:06:25.547,119158,18583,18226,69673,109123
2025-05-05 18:06:25.571,119149,18576,18221,69664,109110
2025-05-05 18:06:25.572,119138,18574,18214,69650,109103
2025-05-05 18:06:25.578,119131,18564,18207,69645,109079
2025-05-05 18:06:25.587,119130,18557,18205,69651,109078
2025-05-05 18:06:25.599,119118,18550,18202,69646,109068
2025-05-05 18:06:25.611,119130,18553,18199,69639,109063
2025-05-05 18:06:25.618,119130,18547,18201,69640,109063
2025-05-05 18:06:25.634,119116,18545,18198,69636,109049
2025-05-05 18:06:25.639,119109,18540,18196,69637,109055
2025-05-05 18:06:25.650,119097,18533,18189,69629,109045
2025-05-05 18:06:25.658,119092,18528,18187,69627,109034
2025-05-05 18:06:25.671,119072,18523,18179,69629,109030
2025-05-05 18:06:25.674,119072,18523,18179,69629,109030
2025-05-05 18:06:25.678,119089,18511,18177,69619,109006
2025-05-05 18:06:25.697,119084,18511,18176,69616,108999
2025-05-05 18:06:25.698,119085,18510,18177,69625,109002
2025-05-05 18:06:25.710,119091,18503,18176,69621,108998
2025-05-05 18:06:25.719,119077,18499,18172,69626,108999
2025-05-05 18:06:25.731,119091,18497,18172,69614,108983
2025-05-05 18:06:25.738,119088,18496,18168,69619,108968
2025-05-05 18:06:25.761,119083,18491,18175,69615,109001
2025-05-05 18:06:25.762,119064,18493,18168,69623,108989
2025-05-05 18:06:25.770,119071,18486,18170,69622,108991
2025-05-05 18:06:25.778,119055,18482,18168,69612,108981
2025-05-05 18:06:25.791,119034,18474,18159,69605,108959
2025-05-05 18:06:25.798,119040,18475,18154,69599,108960
2025-05-05 18:06:25.810,119029,18475,18151,69596,108946
2025-05-05 18:06:25.824,119037,18470,18146,69607,108949
2025-05-05 18:06:25.831,119039,18471,18151,69607,108956
2025-05-05 18:06:25.838,119041,18468,18150,69617,108957
2025-05-05 18:06:25.851,119042,18468,18157,69617,108966
2025-05-05 18:06:25.858,119036,18470,18158,69613,108956
2025-05-05 18:06:25.871,119036,18466,18157,69620,108949
2025-05-05 18:06:25.886,119037,18465,18159,69616,108958
2025-05-05 18:06:25.890,119039,18467,18164,69617,108954
2025-05-05 18:06:25.899,119031,18462,18165,69620,108962
2025-05-05 18:06:25.910,119030,18467,18168,69619,108956
2025-05-05 18:06:25.919,119040,18466,18172,69616,108936
2025-05-05 18:06:25.931,119044,18465,18177,69621,108945
2025-05-05 18:06:25.949,119029,18467,18177,69621,108955
2025-05-05 18:06:25.951,119023,18467,18181,69630,108953
2025-05-05 18:06:25.962,119027,18466,18179,69631,108930
2025-05-05 18:06:25.970,119024,18459,18171,69629,108929
2025-05-05 18:06:25.982,119018,18459,18175,69621,108938
2025-05-05 18:06:25.990,119028,18456,18175,69626,108943
2025-05-05 18:06:26.012,119028,18466,18178,69624,108933
2025-05-05 18:06:26.014,119039,18460,18184,69623,108936
2025-05-05 18:06:26.022,119022,18460,18181,69628,108939
2025-05-05 18:06:26.031,119019,18456,18180,69628,108935
2025-05-05 18:06:26.042,119022,18460,18180,69615,108918
2025-05-05 18:06:26.051,119018,18459,18176,69620,108923
2025-05-05 18:06:26.075,119011,18461,18183,69635,108942
2025-05-05 18:06:26.076,119026,18462,18190,69639,108933
2025-05-05 18:06:26.083,119048,18468,18193,69644,108935
2025-05-05 18:06:26.090,119036,18471,18206,69649,108954
2025-05-05 18:06:26.102,119050,18474,18214,69659,108958
2025-05-05 18:06:26.110,119046,18475,18216,69663,108969
2025-05-05 18:06:26.123,119053,18477,18214,69661,108964
2025-05-05 18:06:26.138,119047,18473,18219,69662,108957
2025-05-05 18:06:26.142,119037,18471,18217,69659,108951
2025-05-05 18:06:26.150,119039,18470,18214,69644,108930
2025-05-05 18:06:26.162,119033,18468,18212,69643,108918
2025-05-05 18:06:26.170,119033,18470,18208,69636,108931
2025-05-05 18:06:26.182,119021,18461,18213,69635,108919
2025-05-05 18:06:26.200,119012,18462,18206,69623,108910
2025-05-05 18:06:26.202,119005,18457,18208,69628,108890
2025-05-05 18:06:26.210,118993,18453,18197,69621,108896
2025-05-05 18:06:26.222,118960,18441,18190,69614,108893
2025-05-05 18:06:26.230,118942,18419,18175,69591,108873
2025-05-05 18:06:26.242,118932,18407,18156,69585,108847
2025-05-05 18:06:26.263,118927,18392,18141,69579,108839
2025-05-05 18:06:26.264,118923,18378,18122,69577,108831
2025-05-05 18:06:26.271,118923,18366,18107,69567,108818
2025-05-05 18:06:26.282,118925,18353,18105,69571,108827
2025-05-05 18:06:26.290,118914,18348,18091,69575,108818
2025-05-05 18:06:26.303,118932,18341,18083,69577,108839
2025-05-05 18:06:26.325,118924,18333,18081,69590,108843
2025-05-05 18:06:26.326,118907,18324,18081,69605,108844
2025-05-05 18:06:26.330,118903,18318,18072,69605,108830
2025-05-05 18:06:26.342,118881,18312,18069,69609,108834
2025-05-05 18:06:26.354,118863,18301,18057,69590,108836
2025-05-05 18:06:26.362,118856,18286,18045,69580,108806
2025-05-05 18:06:26.374,118837,18278,18034,69564,108792
2025-05-05 18:06:26.388,118839,18270,18024,69561,108777
2025-05-05 18:06:26.394,118829,18260,18018,69542,108761
2025-05-05 18:06:26.402,118827,18256,18015,69537,108742
2025-05-05 18:06:26.414,118808,18245,18009,69532,108730
2025-05-05 18:06:26.422,118790,18232,18002,69525,108710
2025-05-05 18:06:26.434,118769,18226,17992,69489,108686
2025-05-05 18:06:26.451,118780,18213,17979,69473,108664
2025-05-05 18:06:26.455,118762,18210,17969,69462,108644
2025-05-05 18:06:26.462,118760,18206,17965,69462,108635
2025-05-05 18:06:26.473,118761,18201,17967,69469,108632
2025-05-05 18:06:26.483,118766,18202,17960,69465,108628
2025-05-05 18:06:26.494,118764,18194,17964,69454,108610
2025-05-05 18:06:26.514,118757,18193,17959,69451,108617
2025-05-05 18:06:26.515,118757,18186,17955,69453,108612
2025-05-05 18:06:26.522,118736,18186,17953,69438,108591
2025-05-05 18:06:26.534,118749,18173,17945,69429,108597
2025-05-05 18:06:26.543,118756,18173,17947,69440,108605
2025-05-05 18:06:26.554,118751,18172,17943,69441,108602
2025-05-05 18:06:26.562,118744,18165,17941,69441,108586
2025-05-05 18:06:26.576,118758,18167,17945,69442,108593
2025-05-05 18:06:26.582,118761,18163,17945,69450,108592
2025-05-05 18:06:26.594,118757,18158,17945,69450,108596
2025-05-05 18:06:26.602,118762,18157,17947,69455,108600
2025-05-05 18:06:26.614,118750,18151,17949,69459,108597
2025-05-05 18:06:26.622,118735,18150,17947,69455,108600
2025-05-05 18:06:26.639,118750,18153,17947,69463,108593
2025-05-05 18:06:26.643,118746,18156,17946,69466,108603
2025-05-05 18:06:26.654,118748,18151,17946,69469,108597
2025-05-05 18:06:26.662,118748,18148,17949,69475,108603
2025-05-05 18:06:26.674,118752,18146,17950,69480,108601
2025-05-05 18:06:26.682,118749,18143,17951,69486,108603
2025-05-05 18:06:26.703,118739,18142,17946,69487,108599
2025-05-05 18:06:26.704,118745,18138,17947,69492,108585
2025-05-05 18:06:26.714,118740,18140,17950,69495,108591
2025-05-05 18:06:26.722,118745,18137,17952,69489,108593
2025-05-05 18:06:26.735,118739,18136,17953,69501,108599
2025-05-05 18:06:26.746,118796,18144,17959,69491,108597
2025-05-05 18:06:26.766,118747,18148,17971,69479,108553
2025-05-05 18:06:26.767,118753,18137,17971,69523,108616
2025-05-05 18:06:26.774,118737,18139,17961,69519,108596
2025-05-05 18:06:26.785,118767,18144,17962,69511,108587
2025-05-05 18:06:26.794,118757,18151,17976,69541,108613
2025-05-05 18:06:26.806,118760,18151,17982,69554,108625
2025-05-05 18:06:26.814,118732,18148,17986,69563,108612
2025-05-05 18:06:26.828,118744,18144,17981,69556,108624
2025-05-05 18:06:26.834,118735,18139,17975,69544,108595
2025-05-05 18:06:26.846,118744,18139,17978,69531,108584
2025-05-05 18:06:26.854,118745,18140,17970,69542,108596
2025-05-05 18:06:26.865,118750,18148,17982,69553,108598
2025-05-05 18:06:26.874,118761,18148,17986,69554,108595
2025-05-05 18:06:26.891,118769,18152,18000,69557,108613
2025-05-05 18:06:26.894,118772,18151,17999,69555,108623
2025-05-05 18:06:26.907,118773,18154,18006,69572,108627
2025-05-05 18:06:26.914,118772,18158,18014,69573,108630
2025-05-05 18:06:26.926,118763,18158,18007,69568,108638
2025-05-05 18:06:26.934,118759,18162,18011,69582,108627
2025-05-05 18:06:26.954,118752,18159,18017,69580,108632
2025-05-05 18:06:26.955,118758,18160,18020,69570,108640
2025-05-05 18:06:26.966,118762,18162,18020,69585,108623
2025-05-05 18:06:26.974,118774,18160,18030,69579,108641
2025-05-05 18:06:26.986,118778,18167,18033,69591,108652
2025-05-05 18:06:26.994,118778,18166,18037,69594,108645
2025-05-05 18:06:27.016,118779,18167,18040,69585,108641
2025-05-05 18:06:27.017,118786,18164,18041,69584,108651
2025-05-05 18:06:27.026,118770,18169,18039,69586,108634
2025-05-05 18:06:27.033,118769,18168,18039,69577,108634
2025-05-05 18:06:27.046,118751,18169,18037,69566,108625
2025-05-05 18:06:27.054,118772,18167,18038,69559,108620
2025-05-05 18:06:27.079,118750,18158,18035,69550,108613
2025-05-05 18:06:27.080,118730,18155,18030,69546,108612
2025-05-05 18:06:27.081,118730,18155,18030,69546,108612
2025-05-05 18:06:27.085,118723,18137,18014,69527,108588
2025-05-05 18:06:27.097,118717,18126,18002,69517,108587
2025-05-05 18:06:27.106,118702,18114,17994,69523,108570
2025-05-05 18:06:27.117,118672,18102,17974,69502,108572
2025-05-05 18:06:27.126,118682,18086,17957,69493,108564
2025-05-05 18:06:27.142,118663,18072,17948,69487,108544
2025-05-05 18:06:27.146,118648,18056,17928,69482,108541
2025-05-05 18:06:27.158,118660,18039,17914,69472,108541
2025-05-05 18:06:27.166,118652,18032,17901,69469,108527
2025-05-05 18:06:27.178,118627,18013,17888,69462,108533
2025-05-05 18:06:27.185,118610,18000,17871,69454,108509
2025-05-05 18:06:27.205,118583,17981,17858,69431,108503
2025-05-05 18:06:27.206,118571,17968,17839,69416,108488
2025-05-05 18:06:27.218,118565,17956,17826,69397,108464
2025-05-05 18:06:27.226,118559,17945,17817,69390,108454
2025-05-05 18:06:27.238,118559,17944,17811,69390,108459
2025-05-05 18:06:27.246,118571,17938,17814,69390,108467
2025-05-05 18:06:27.267,118562,17930,17809,69384,108466
2025-05-05 18:06:27.269,118548,17927,17808,69385,108454
2025-05-05 18:06:27.278,118536,17915,17798,69363,108448
2025-05-05 18:06:27.286,118515,17908,17794,69363,108439
2025-05-05 18:06:27.298,118511,17901,17789,69351,108414
2025-05-05 18:06:27.305,118499,17890,17775,69327,108409
2025-05-05 18:06:27.330,118475,17879,17769,69312,108395
2025-05-05 18:06:27.331,118479,17874,17761,69309,108379
2025-05-05 18:06:27.337,118475,17866,17758,69295,108370
2025-05-05 18:06:27.347,118469,17860,17754,69288,108356
2025-05-05 18:06:27.358,118469,17865,17750,69290,108342
2025-05-05 18:06:27.365,118461,17857,17756,69289,108354
2025-05-05 18:06:27.378,118486,17849,17753,69288,108353
2025-05-05 18:06:27.394,118468,17852,17758,69287,108355
2025-05-05 18:06:27.398,118462,17845,17749,69294,108346
2025-05-05 18:06:27.405,118457,17845,17757,69287,108354
2025-05-05 18:06:27.418,118445,17840,17755,69288,108354
2025-05-05 18:06:27.426,118439,17832,17743,69278,108327
2025-05-05 18:06:27.438,118415,17821,17735,69272,108313
2025-05-05 18:06:27.457,118423,17818,17736,69265,108315
2025-05-05 18:06:27.458,118431,17817,17729,69268,108317
2025-05-05 18:06:27.469,118420,17808,17730,69273,108330
2025-05-05 18:06:27.477,118419,17805,17730,69266,108326
2025-05-05 18:06:27.489,118405,17799,17730,69266,108298
2025-05-05 18:06:27.498,118408,17798,17718,69249,108298
2025-05-05 18:06:27.520,118403,17790,17719,69247,108286
2025-05-05 18:06:27.521,118398,17789,17716,69243,108295
2025-05-05 18:06:27.530,118395,17790,17720,69249,108295
2025-05-05 18:06:27.538,118403,17793,17722,69262,108297
2025-05-05 18:06:27.549,118398,17792,17727,69268,108300
2025-05-05 18:06:27.557,118400,17794,17731,69270,108303
2025-05-05 18:06:27.583,118397,17784,17729,69261,108294
2025-05-05 18:06:27.584,118380,17784,17725,69257,108291
2025-05-05 18:06:27.590,118368,17778,17719,69256,108291
2025-05-05 18:06:27.598,118381,17779,17723,69252,108271
2025-05-05 18:06:27.610,118388,17779,17727,69250,108282
2025-05-05 18:06:27.618,118391,17784,17720,69248,108284
2025-05-05 18:06:27.629,118391,17784,17734,69255,108296
2025-05-05 18:06:27.646,118393,17784,17741,69257,108288
2025-05-05 18:06:27.650,118385,17779,17741,69245,108282
2025-05-05 18:06:27.658,118403,17782,17735,69238,108280
2025-05-05 18:06:27.669,118386,17778,17741,69237,108277
2025-05-05 18:06:27.677,118377,17778,17737,69238,108275
2025-05-05 18:06:27.689,118368,17779,17744,69227,108270
2025-05-05 18:06:27.709,118385,17779,17737,69228,108277
2025-05-05 18:06:27.710,118390,17781,17735,69227,108268
2025-05-05 18:06:27.718,118397,17784,17745,69223,108286
2025-05-05 18:06:27.729,118404,17789,17754,69241,108306
2025-05-05 18:06:27.737,118419,17792,17757,69243,108303
2025-05-05 18:06:27.749,118416,17793,17770,69246,108320
2025-05-05 18:06:27.756,118410,17799,17771,69255,108326
2025-05-05 18:06:27.772,118414,17794,17779,69267,108316
2025-05-05 18:06:27.777,118401,17795,17784,69253,108317
2025-05-05 18:06:27.789,118392,17794,17780,69257,108312
2025-05-05 18:06:27.798,118393,17793,17783,69254,108301
2025-05-05 18:06:27.809,118405,17793,17781,69253,108291
2025-05-05 18:06:27.818,118404,17796,17782,69252,108295
2025-05-05 18:06:27.834,118410,17797,17784,69268,108304
2025-05-05 18:06:27.842,118421,17801,17794,69273,108303
2025-05-05 18:06:27.849,118426,17806,17799,69283,108303
2025-05-05 18:06:27.861,118427,17816,17809,69298,108327
2025-05-05 18:06:27.869,118420,17820,17821,69302,108338
2025-05-05 18:06:27.882,118422,17817,17819,69313,108330
2025-05-05 18:06:27.897,118406,17816,17821,69304,108294
2025-05-05 18:06:27.901,118396,17814,17818,69301,108308
2025-05-05 18:06:27.910,118394,17815,17813,69296,108297
2025-05-05 18:06:27.921,118415,17812,17817,69301,108301
2025-05-05 18:06:27.929,118409,17815,17819,69303,108286
2025-05-05 18:06:27.942,118406,17822,17825,69306,108304
2025-05-05 18:06:27.959,118414,17818,17827,69305,108291
2025-05-05 18:06:27.961,118395,17816,17820,69298,108292
2025-05-05 18:06:27.970,118380,17809,17818,69291,108272
2025-05-05 18:06:27.981,118381,17800,17811,69277,108240
2025-05-05 18:06:27.989,118346,17792,17796,69265,108219
2025-05-05 18:06:28.001,118351,17781,17788,69259,108205
2025-05-05 18:06:28.022,118317,17767,17771,69241,108181
2025-05-05 18:06:28.023,118310,17748,17751,69249,108174
2025-05-05 18:06:28.029,118316,17738,17739,69242,108165
2025-05-05 18:06:28.041,118307,17724,17720,69234,108168
2025-05-05 18:06:28.050,118285,17709,17703,69228,108154
2025-05-05 18:06:28.060,118282,17697,17693,69226,108146
2025-05-05 18:06:28.070,118274,17685,17676,69220,108135
2025-05-05 18:06:28.085,118266,17669,17665,69218,108131
2025-05-05 18:06:28.089,118245,17661,17650,69215,108117
2025-05-05 18:06:28.101,118237,17641,17641,69209,108119
2025-05-05 18:06:28.109,118228,17633,17626,69203,108102
2025-05-05 18:06:28.122,118213,17626,17615,69184,108105
2025-05-05 18:06:28.129,118195,17614,17603,69184,108085
2025-05-05 18:06:28.148,118189,17601,17594,69166,108056
2025-05-05 18:06:28.149,118169,17599,17586,69158,108041
2025-05-05 18:06:28.162,118170,17592,17574,69150,108030
2025-05-05 18:06:28.169,118165,17582,17572,69142,108040
2025-05-05 18:06:28.182,118165,17576,17574,69134,108030
2025-05-05 18:06:28.189,118152,17570,17569,69129,108018
2025-05-05 18:06:28.211,118158,17567,17563,69126,108032
2025-05-05 18:06:28.213,118141,17557,17560,69114,108012
2025-05-05 18:06:28.220,118128,17553,17549,69099,108006
2025-05-05 18:06:28.233,118123,17550,17550,69094,107991
2025-05-05 18:06:28.241,118119,17543,17545,69086,107984
2025-05-05 18:06:28.253,118103,17541,17545,69066,107974
2025-05-05 18:06:28.274,118105,17543,17534,69065,107959
2025-05-05 18:06:28.275,118092,17532,17538,69057,107952
2025-05-05 18:06:28.281,118094,17532,17538,69051,107955
2025-05-05 18:06:28.293,118086,17527,17535,69039,107929
2025-05-05 18:06:28.302,118079,17518,17528,69020,107924
2025-05-05 18:06:28.313,118078,17511,17525,69018,107902
2025-05-05 18:06:28.321,118070,17507,17520,69001,107903
2025-05-05 18:06:28.337,118067,17505,17511,69009,107898
2025-05-05 18:06:28.341,118068,17498,17512,68995,107883
2025-05-05 18:06:28.353,118063,17496,17511,68992,107869
2025-05-05 18:06:28.361,118059,17493,17510,68991,107867
2025-05-05 18:06:28.373,118035,17488,17505,68983,107861
2025-05-05 18:06:28.381,118050,17487,17497,68977,107856
2025-05-05 18:06:28.400,118039,17484,17496,68975,107853
2025-05-05 18:06:28.402,118036,17482,17496,68988,107853
2025-05-05 18:06:28.413,118040,17486,17501,68991,107860
2025-05-05 18:06:28.421,118038,17481,17502,68986,107865
2025-05-05 18:06:28.433,118036,17480,17501,68986,107849
2025-05-05 18:06:28.441,118030,17471,17499,68982,107839
2025-05-05 18:06:28.462,118019,17471,17497,68977,107825
2025-05-05 18:06:28.464,118027,17471,17492,68969,107830
2025-05-05 18:06:28.473,118023,17470,17495,68969,107829
2025-05-05 18:06:28.485,118017,17470,17492,68975,107829
2025-05-05 18:06:28.486,118017,17470,17492,68975,107829
2025-05-05 18:06:28.493,118006,17472,17506,68966,107818
2025-05-05 18:06:28.501,118004,17472,17502,68970,107811
2025-05-05 18:06:28.525,118014,17473,17505,68979,107816
2025-05-05 18:06:28.526,118008,17472,17508,68973,107819
2025-05-05 18:06:28.533,118003,17472,17506,68972,107810
2025-05-05 18:06:28.542,117998,17478,17509,68980,107808
2025-05-05 18:06:28.554,117992,17475,17506,68982,107808
2025-05-05 18:06:28.565,118014,17475,17517,68995,107812
2025-05-05 18:06:28.573,118021,17483,17523,68990,107813
2025-05-05 18:06:28.588,118017,17483,17523,68999,107819
2025-05-05 18:06:28.593,118008,17484,17526,68988,107813
2025-05-05 18:06:28.605,118007,17483,17532,69000,107806
2025-05-05 18:06:28.613,118003,17481,17527,68994,107805
2025-05-05 18:06:28.625,117998,17481,17535,68992,107793
2025-05-05 18:06:28.633,117996,17481,17533,68982,107788
2025-05-05 18:06:28.651,118000,17484,17537,68988,107797
2025-05-05 18:06:28.653,118013,17488,17545,68993,107797
2025-05-05 18:06:28.666,118023,17500,17551,69002,107817
2025-05-05 18:06:28.673,118037,17505,17558,69015,107827
2025-05-05 18:06:28.685,118038,17511,17572,69029,107838
2025-05-05 18:06:28.693,118028,17517,17583,69030,107852
2025-05-05 18:06:28.713,118027,17516,17581,69022,107839
2025-05-05 18:06:28.714,118007,17517,17578,69017,107835
2025-05-05 18:06:28.725,117999,17514,17575,69011,107825
2025-05-05 18:06:28.733,117991,17518,17579,69019,107819
2025-05-05 18:06:28.744,118009,17517,17584,69009,107833
2025-05-05 18:06:28.753,118018,17528,17586,69019,107838
2025-05-05 18:06:28.776,118017,17530,17596,69022,107841
2025-05-05 18:06:28.777,118016,17534,17604,69030,107843
2025-05-05 18:06:28.785,118006,17539,17606,69032,107861
2025-05-05 18:06:28.793,117989,17534,17604,69017,107841
2025-05-05 18:06:28.805,117981,17535,17596,69006,107824
2025-05-05 18:06:28.813,117972,17528,17594,69002,107812
2025-05-05 18:06:28.824,117959,17527,17593,68979,107802
2025-05-05 18:06:28.839,117968,17524,17586,68972,107803
2025-05-05 18:06:28.845,117956,17521,17587,68966,107786
2025-05-05 18:06:28.854,117954,17513,17590,68953,107773
2025-05-05 18:06:28.864,117939,17514,17576,68946,107766
2025-05-05 18:06:28.873,117921,17498,17568,68929,107763
2025-05-05 18:06:28.885,117905,17482,17547,68914,107731
2025-05-05 18:06:28.902,117882,17466,17533,68889,107717
2025-05-05 18:06:28.905,117866,17453,17516,68886,107707
2025-05-05 18:06:28.916,117857,17444,17493,68869,107692
2025-05-05 18:06:28.924,117864,17430,17485,68872,107692
2025-05-05 18:06:28.936,117871,17416,17472,68865,107678
2025-05-05 18:06:28.945,117849,17406,17459,68866,107679
2025-05-05 18:06:28.965,117821,17395,17447,68858,107679
2025-05-05 18:06:28.966,117818,17384,17431,68852,107663
2025-05-05 18:06:28.977,117808,17373,17416,68834,107647
2025-05-05 18:06:28.985,117799,17361,17410,68830,107642
2025-05-05 18:06:28.996,117770,17352,17399,68826,107624
2025-05-05 18:06:29.005,117775,17346,17388,68811,107614
2025-05-05 18:06:29.028,117747,17337,17378,68803,107600
2025-05-05 18:06:29.030,117744,17328,17375,68794,107595
2025-05-05 18:06:29.037,117726,17318,17362,68783,107560
2025-05-05 18:06:29.045,117729,17313,17358,68762,107558
2025-05-05 18:06:29.057,117728,17312,17352,68755,107546
2025-05-05 18:06:29.065,117728,17314,17353,68762,107543
2025-05-05 18:06:29.076,117733,17311,17353,68740,107527
2025-05-05 18:06:29.091,117734,17307,17352,68747,107529
2025-05-05 18:06:29.097,117715,17306,17358,68739,107532
2025-05-05 18:06:29.105,117708,17302,17355,68727,107520
2025-05-05 18:06:29.117,117696,17299,17353,68718,107512
2025-05-05 18:06:29.124,117686,17295,17355,68714,107503
2025-05-05 18:06:29.137,117675,17293,17349,68702,107490
2025-05-05 18:06:29.154,117681,17290,17343,68684,107480
2025-05-05 18:06:29.157,117665,17288,17346,68692,107480
2025-05-05 18:06:29.165,117683,17290,17344,68689,107491
2025-05-05 18:06:29.177,117682,17289,17348,68700,107491
2025-05-05 18:06:29.184,117675,17289,17355,68693,107506
2025-05-05 18:06:29.196,117666,17290,17349,68688,107497
2025-05-05 18:06:29.217,117666,17282,17353,68684,107505
2025-05-05 18:06:29.218,117649,17277,17345,68683,107486
2025-05-05 18:06:29.224,117656,17275,17336,68670,107475
2025-05-05 18:06:29.236,117643,17272,17335,68674,107464
2025-05-05 18:06:29.245,117645,17267,17331,68661,107460
2025-05-05 18:06:29.257,117638,17261,17334,68660,107438
2025-05-05 18:06:29.264,117646,17263,17329,68657,107441
2025-05-05 18:06:29.280,117632,17264,17335,68661,107444
2025-05-05 18:06:29.289,117639,17267,17332,68663,107454
2025-05-05 18:06:29.296,117642,17268,17340,68667,107475
2025-05-05 18:06:29.308,117646,17269,17345,68665,107477
2025-05-05 18:06:29.316,117650,17271,17346,68679,107482
2025-05-05 18:06:29.329,117661,17274,17356,68684,107492
2025-05-05 18:06:29.344,117654,17281,17358,68684,107483
2025-05-05 18:06:29.348,117641,17278,17362,68684,107499
2025-05-05 18:06:29.356,117644,17278,17361,68679,107497
2025-05-05 18:06:29.368,117629,17283,17365,68683,107504
2025-05-05 18:06:29.377,117635,17278,17365,68688,107489
2025-05-05 18:06:29.388,117653,17282,17365,68680,107483
2025-05-05 18:06:29.407,117641,17282,17371,68677,107500
2025-05-05 18:06:29.408,117630,17286,17374,68681,107503
2025-05-05 18:06:29.416,117646,17289,17375,68678,107503
2025-05-05 18:06:29.428,117648,17293,17380,68679,107509
2025-05-05 18:06:29.437,117643,17293,17386,68691,107502
2025-05-05 18:06:29.448,117641,17292,17394,68685,107504
2025-05-05 18:06:29.470,117626,17293,17392,68674,107509
2025-05-05 18:06:29.472,117636,17295,17389,68669,107491
2025-05-05 18:06:29.476,117618,17293,17391,68665,107485
2025-05-05 18:06:29.488,117609,17291,17389,68664,107472
2025-05-05 18:06:29.496,117631,17297,17387,68655,107481
2025-05-05 18:06:29.508,117635,17298,17401,68661,107495
2025-05-05 18:06:29.517,117638,17308,17405,68665,107495
2025-05-05 18:06:29.534,117651,17307,17412,68667,107499
2025-05-05 18:06:29.536,117636,17313,17417,68682,107516
2025-05-05 18:06:29.548,117639,17312,17420,68675,107513
2025-05-05 18:06:29.556,117644,17318,17422,68682,107518
2025-05-05 18:06:29.568,117643,17320,17426,68687,107525
2025-05-05 18:06:29.577,117661,17326,17436,68698,107529
2025-05-05 18:06:29.596,117655,17330,17440,68700,107533
2025-05-05 18:06:29.597,117656,17331,17446,68713,107553
2025-05-05 18:06:29.609,117661,17338,17453,68723,107534
2025-05-05 18:06:29.616,117650,17338,17448,68727,107548
2025-05-05 18:06:29.629,117655,17344,17460,68734,107551
2025-05-05 18:06:29.636,117652,17350,17465,68756,107545
2025-05-05 18:06:29.659,117658,17352,17468,68762,107542
2025-05-05 18:06:29.661,117659,17355,17475,68773,107546
2025-05-05 18:06:29.668,117654,17361,17485,68791,107561
2025-05-05 18:06:29.680,117667,17364,17485,68810,107569
2025-05-05 18:06:29.689,117655,17374,17498,68825,107567
2025-05-05 18:06:29.700,117645,17374,17503,68834,107575
2025-05-05 18:06:29.708,117646,17379,17505,68843,107566
2025-05-05 18:06:29.724,117635,17382,17508,68865,107588
2025-05-05 18:06:29.728,117624,17377,17507,68875,107583
2025-05-05 18:06:29.740,117609,17366,17507,68865,107574
2025-05-05 18:06:29.748,117592,17353,17495,68863,107566
2025-05-05 18:06:29.760,117557,17332,17472,68864,107552
2025-05-05 18:06:29.769,117537,17312,17446,68853,107519
2025-05-05 18:06:29.786,117512,17298,17422,68841,107502
2025-05-05 18:06:29.789,117486,17276,17397,68834,107473
2025-05-05 18:06:29.800,117495,17263,17378,68829,107471
2025-05-05 18:06:29.807,117482,17245,17363,68825,107457
2025-05-05 18:06:29.820,117479,17234,17355,68828,107463
2025-05-05 18:06:29.828,117466,17222,17338,68828,107444
2025-05-05 18:06:29.850,117444,17205,17319,68828,107428
2025-05-05 18:06:29.851,117429,17194,17301,68818,107412
2025-05-05 18:06:29.860,117396,17173,17288,68797,107377
2025-05-05 18:06:29.869,117382,17161,17270,68796,107352
2025-05-05 18:06:29.880,117360,17149,17262,68772,107340
2025-05-05 18:06:29.893,117360,17134,17251,68752,107312
2025-05-05 18:06:29.894,117360,17134,17251,68752,107312
2025-05-05 18:06:29.913,117353,17115,17228,68738,107271
2025-05-05 18:06:29.914,117353,17108,17216,68728,107266
2025-05-05 18:06:29.920,117349,17109,17220,68735,107263
2025-05-05 18:06:29.928,117347,17102,17217,68731,107250
2025-05-05 18:06:29.941,117353,17105,17220,68733,107255
2025-05-05 18:06:29.948,117342,17100,17223,68729,107260
2025-05-05 18:06:29.961,117338,17101,17223,68724,107253
2025-05-05 18:06:29.976,117318,17099,17224,68715,107244
2025-05-05 18:06:29.980,117309,17091,17218,68712,107229
2025-05-05 18:06:29.989,117292,17087,17224,68701,107214
2025-05-05 18:06:29.999,117283,17084,17212,68680,107198
2025-05-05 18:06:30.012,117287,17077,17207,68668,107180
2025-05-05 18:06:30.020,117285,17074,17209,68667,107185
2025-05-05 18:06:30.039,117293,17075,17212,68661,107183
2025-05-05 18:06:30.040,117296,17080,17213,68672,107198
2025-05-05 18:06:30.052,117285,17073,17218,68661,107210
2025-05-05 18:06:30.060,117285,17077,17216,68658,107195
2025-05-05 18:06:30.072,117278,17070,17214,68650,107205
2025-05-05 18:06:30.079,117256,17064,17214,68642,107188
2025-05-05 18:06:30.101,117253,17063,17215,68633,107184
2025-05-05 18:06:30.102,117264,17061,17210,68620,107175
2025-05-05 18:06:30.112,117255,17057,17207,68616,107187
2025-05-05 18:06:30.120,117264,17056,17207,68617,107185
2025-05-05 18:06:30.131,117255,17053,17214,68609,107190
2025-05-05 18:06:30.140,117252,17053,17210,68599,107188
2025-05-05 18:06:30.165,117254,17050,17205,68597,107177
2025-05-05 18:06:30.166,117253,17053,17210,68591,107168
2025-05-05 18:06:30.172,117244,17053,17208,68589,107170
2025-05-05 18:06:30.179,117245,17054,17217,68594,107176
2025-05-05 18:06:30.192,117252,17056,17218,68606,107177
2025-05-05 18:06:30.200,117244,17055,17222,68608,107178
2025-05-05 18:06:30.212,117232,17060,17219,68603,107177
2025-05-05 18:06:30.228,117235,17058,17228,68610,107179
2025-05-05 18:06:30.231,117236,17059,17220,68615,107186
2025-05-05 18:06:30.240,117236,17056,17230,68609,107167
2025-05-05 18:06:30.252,117225,17058,17234,68611,107169
2025-05-05 18:06:30.261,117229,17057,17235,68618,107150
2025-05-05 18:06:30.272,117235,17059,17234,68621,107139
2025-05-05 18:06:30.291,117245,17064,17238,68634,107147
2025-05-05 18:06:30.292,117236,17067,17248,68647,107181
2025-05-05 18:06:30.301,117253,17072,17254,68654,107192
2025-05-05 18:06:30.311,117251,17080,17260,68673,107176
2025-05-05 18:06:30.320,117247,17085,17270,68679,107186
2025-05-05 18:06:30.332,117268,17086,17272,68702,107192
2025-05-05 18:06:30.340,117255,17091,17279,68717,107206
2025-05-05 18:06:30.354,117253,17089,17280,68720,107187
2025-05-05 18:06:30.360,117253,17090,17284,68717,107190
2025-05-05 18:06:30.372,117256,17092,17285,68729,107183
2025-05-05 18:06:30.380,117253,17099,17292,68736,107194
2025-05-05 18:06:30.392,117255,17104,17299,68741,107196
2025-05-05 18:06:30.417,117274,17111,17304,68748,107208
2025-05-05 18:06:30.418,117263,17110,17312,68758,107230
2025-05-05 18:06:30.423,117275,17116,17319,68772,107229
2025-05-05 18:06:30.432,117279,17118,17324,68765,107231
2025-05-05 18:06:30.444,117270,17116,17319,68764,107223
2025-05-05 18:06:30.451,117269,17123,17324,68778,107219
2025-05-05 18:06:30.464,117282,17124,17332,68774,107238
2025-05-05 18:06:30.479,117282,17129,17334,68766,107226
2025-05-05 18:06:30.484,117290,17137,17341,68771,107252
2025-05-05 18:06:30.492,117300,17135,17349,68775,107238
2025-05-05 18:06:30.503,117299,17145,17356,68775,107256
2025-05-05 18:06:30.512,117305,17147,17358,68781,107266
2025-05-05 18:06:30.524,117321,17149,17365,68790,107263
2025-05-05 18:06:30.542,117323,17162,17377,68788,107272
2025-05-05 18:06:30.544,117309,17163,17391,68803,107285
2025-05-05 18:06:30.552,117311,17164,17395,68798,107283
2025-05-05 18:06:30.563,117314,17164,17391,68797,107268
2025-05-05 18:06:30.572,117308,17169,17396,68798,107277
2025-05-05 18:06:30.584,117296,17164,17393,68792,107256
2025-05-05 18:06:30.591,117287,17159,17388,68784,107250
2025-05-05 18:06:30.605,117279,17153,17385,68774,107242
2025-05-05 18:06:30.612,117273,17147,17373,68768,107238
2025-05-05 18:06:30.623,117256,17135,17363,68770,107218
2025-05-05 18:06:30.633,117234,17125,17349,68770,107216
2025-05-05 18:06:30.644,117230,17107,17335,68769,107210
2025-05-05 18:06:30.652,117221,17099,17318,68764,107202
2025-05-05 18:06:30.667,117208,17079,17304,68763,107198
2025-05-05 18:06:30.671,117197,17068,17283,68763,107184
2025-05-05 18:06:30.684,117186,17054,17261,68767,107186
2025-05-05 18:06:30.695,117172,17038,17252,68769,107181
2025-05-05 18:06:30.704,117156,17025,17234,68767,107172
2025-05-05 18:06:30.712,117135,17012,17219,68764,107167
2025-05-05 18:06:30.730,117109,16997,17200,68760,107116
2025-05-05 18:06:30.732,117097,16989,17187,68747,107108
2025-05-05 18:06:30.744,117083,16978,17174,68740,107104
2025-05-05 18:06:30.756,117091,16968,17166,68743,107111
2025-05-05 18:06:30.763,117079,16959,17160,68742,107092
2025-05-05 18:06:30.775,117068,16952,17155,68752,107090
2025-05-05 18:06:30.793,117054,16951,17150,68759,107093
2025-05-05 18:06:30.796,117043,16943,17145,68769,107078
2025-05-05 18:06:30.803,117037,16940,17145,68776,107063
2025-05-05 18:06:30.816,117024,16931,17140,68774,107065
2025-05-05 18:06:30.824,117004,16926,17135,68777,107061
2025-05-05 18:06:30.835,117005,16920,17131,68774,107037
2025-05-05 18:06:30.857,116986,16917,17128,68770,107020
2025-05-05 18:06:30.858,116986,16915,17123,68768,107006
2025-05-05 18:06:30.864,116991,16909,17121,68779,107005
2025-05-05 18:06:30.876,116994,16913,17125,68785,107017
2025-05-05 18:06:30.883,116986,16908,17126,68794,107007
2025-05-05 18:06:30.895,116968,16910,17128,68799,107018
2025-05-05 18:06:30.904,116966,16910,17128,68810,107001
2025-05-05 18:06:30.919,116968,16915,17132,68825,107000
2025-05-05 18:06:30.923,116964,16908,17135,68827,106999
2025-05-05 18:06:30.936,116949,16905,17133,68827,107002
2025-05-05 18:06:30.943,116938,16898,17129,68819,106977
2025-05-05 18:06:30.955,116938,16894,17124,68820,106979
2025-05-05 18:06:30.963,116914,16886,17119,68822,106940
2025-05-05 18:06:30.982,116913,16882,17117,68813,106944
2025-05-05 18:06:30.983,116921,16885,17112,68813,106937
2025-05-05 18:06:30.995,116924,16886,17116,68821,106939
2025-05-05 18:06:31.003,116925,16885,17120,68832,106948
2025-05-05 18:06:31.016,116924,16889,17122,68830,106944
2025-05-05 18:06:31.023,116918,16886,17124,68827,106940
2025-05-05 18:06:31.045,116911,16887,17127,68834,106937
2025-05-05 18:06:31.046,116891,16885,17126,68820,106916
2025-05-05 18:06:31.056,116900,16883,17124,68820,106919
2025-05-05 18:06:31.064,116899,16881,17130,68810,106906
2025-05-05 18:06:31.075,116896,16877,17125,68808,106897
2025-05-05 18:06:31.084,116878,16878,17129,68805,106884
2025-05-05 18:06:31.108,116874,16883,17126,68804,106893
2025-05-05 18:06:31.110,116882,16884,17128,68799,106871
2025-05-05 18:06:31.116,116874,16879,17128,68801,106867
2025-05-05 18:06:31.127,116871,16882,17133,68794,106857
2025-05-05 18:06:31.136,116860,16880,17132,68788,106849
2025-05-05 18:06:31.148,116863,16881,17139,68786,106839
2025-05-05 18:06:31.155,116858,16889,17139,68779,106831
2025-05-05 18:06:31.171,116856,16888,17145,68781,106849
2025-05-05 18:06:31.176,116865,16891,17156,68788,106833
2025-05-05 18:06:31.187,116859,16902,17163,68797,106847
2025-05-05 18:06:31.195,116862,16908,17174,68800,106845
2025-05-05 18:06:31.207,116852,16915,17179,68817,106858
2025-05-05 18:06:31.215,116841,16920,17187,68822,106850
2025-05-05 18:06:31.235,116841,16919,17194,68828,106846
2025-05-05 18:06:31.236,116821,16920,17192,68820,106837
2025-05-05 18:06:31.248,116813,16921,17199,68830,106831
2025-05-05 18:06:31.256,116803,16924,17197,68822,106825
2025-05-05 18:06:31.267,116813,16925,17199,68824,106832
2025-05-05 18:06:31.275,116806,16930,17197,68823,106834
2025-05-05 18:06:31.298,116814,16939,17203,68843,106838
2025-05-05 18:06:31.299,116819,16939,17208,68842,106843
2025-05-05 18:06:31.300,116819,16939,17208,68842,106843
2025-05-05 18:06:31.307,116836,16952,17229,68872,106865
2025-05-05 18:06:31.315,116833,16955,17229,68879,106870
2025-05-05 18:06:31.327,116839,16960,17235,68882,106882
2025-05-05 18:06:31.336,116838,16962,17237,68876,106883
2025-05-05 18:06:31.347,116833,16967,17235,68875,106880
2025-05-05 18:06:31.362,116829,16963,17241,68879,106860
2025-05-05 18:06:31.368,116838,16967,17237,68871,106848
2025-05-05 18:06:31.376,116842,16971,17240,68876,106855
2025-05-05 18:06:31.388,116848,16981,17248,68881,106867
2025-05-05 18:06:31.394,116872,16993,17263,68903,106878
2025-05-05 18:06:31.407,116891,17001,17274,68923,106909
2025-05-05 18:06:31.425,116892,17013,17294,68953,106938
2025-05-05 18:06:31.427,116880,17021,17308,68968,106957
2025-05-05 18:06:31.435,116874,17029,17316,68969,106966
2025-05-05 18:06:31.448,116869,17021,17313,68965,106953
2025-05-05 18:06:31.460,116862,17027,17310,68955,106935
2025-05-05 18:06:31.467,116860,17027,17305,68949,106925
2025-05-05 18:06:31.488,116854,17026,17313,68945,106934
2025-05-05 18:06:31.490,116856,17031,17308,68939,106928
2025-05-05 18:06:31.500,116840,17028,17315,68931,106903
2025-05-05 18:06:31.507,116834,17028,17307,68929,106896
2025-05-05 18:06:31.519,116827,17022,17302,68921,106902
2025-05-05 18:06:31.527,116805,17013,17296,68914,106886
2025-05-05 18:06:31.551,116794,16999,17277,68904,106865
2025-05-05 18:06:31.552,116779,16988,17264,68895,106839
2025-05-05 18:06:31.559,116779,16970,17247,68893,106835
2025-05-05 18:06:31.567,116747,16958,17226,68891,106815
2025-05-05 18:06:31.579,116727,16935,17203,68872,106807
2025-05-05 18:06:31.587,116724,16923,17181,68876,106786
2025-05-05 18:06:31.599,116723,16910,17161,68872,106772
2025-05-05 18:06:31.614,116720,16901,17151,68871,106762
2025-05-05 18:06:31.619,116703,16888,17139,68882,106763
2025-05-05 18:06:31.627,116693,16874,17130,68879,106747
2025-05-05 18:06:31.639,116678,16864,17118,68883,106745
2025-05-05 18:06:31.647,116665,16856,17100,68875,106741
2025-05-05 18:06:31.659,116643,16846,17092,68877,106714
2025-05-05 18:06:31.677,116635,16838,17084,68880,106703
2025-05-05 18:06:31.679,116630,16833,17082,68883,106699
2025-05-05 18:06:31.686,116625,16830,17070,68873,106682
2025-05-05 18:06:31.699,116613,16818,17067,68871,106675
2025-05-05 18:06:31.707,116606,16814,17064,68869,106664
2025-05-05 18:06:31.719,116605,16807,17060,68859,106644
2025-05-05 18:06:31.740,116598,16804,17058,68862,106634
2025-05-05 18:06:31.741,116587,16799,17054,68853,106606
2025-05-05 18:06:31.747,116596,16803,17053,68835,106605
2025-05-05 18:06:31.759,116585,16794,17053,68837,106577
2025-05-05 18:06:31.768,116597,16792,17054,68825,106566
2025-05-05 18:06:31.779,116594,16793,17059,68823,106577
2025-05-05 18:06:31.786,116576,16791,17055,68813,106565
2025-05-05 18:06:31.803,116574,16790,17052,68805,106551
2025-05-05 18:06:31.807,116568,16790,17058,68784,106534
2025-05-05 18:06:31.819,116557,16786,17060,68787,106549
2025-05-05 18:06:31.827,116558,16784,17055,68766,106535
2025-05-05 18:06:31.839,116557,16781,17057,68760,106533
2025-05-05 18:06:31.851,116553,16779,17052,68760,106524
2025-05-05 18:06:31.865,116549,16775,17054,68752,106525
2025-05-05 18:06:31.867,116542,16772,17057,68742,106524
2025-05-05 18:06:31.880,116527,16773,17043,68731,106515
2025-05-05 18:06:31.890,116544,16764,17044,68718,106500
2025-05-05 18:06:31.899,116537,16763,17040,68719,106485
2025-05-05 18:06:31.911,116553,16765,17039,68715,106476
2025-05-05 18:06:31.928,116543,16760,17040,68709,106478
2025-05-05 18:06:31.931,116551,16759,17043,68697,106456
2025-05-05 18:06:31.938,116554,16755,17037,68697,106446
2025-05-05 18:06:31.950,116554,16753,17040,68681,106437
2025-05-05 18:06:31.959,116564,16751,17036,68674,106436
2025-05-05 18:06:31.971,116566,16752,17045,68673,106423
2025-05-05 18:06:31.991,116587,16755,17043,68668,106420
2025-05-05 18:06:31.992,116596,16761,17054,68664,106429
2025-05-05 18:06:31.999,116619,16766,17063,68685,106442
2025-05-05 18:06:32.011,116621,16769,17063,68694,106457
2025-05-05 18:06:32.019,116623,16776,17074,68702,106469
2025-05-05 18:06:32.031,116629,16780,17081,68706,106465
2025-05-05 18:06:32.039,116625,16785,17089,68727,106475
2025-05-05 18:06:32.055,116628,16788,17095,68723,106468
2025-05-05 18:06:32.059,116639,16787,17100,68726,106473
2025-05-05 18:06:32.071,116636,16798,17103,68724,106464
2025-05-05 18:06:32.079,116629,16803,17106,68735,106486
2025-05-05 18:06:32.091,116638,16808,17112,68734,106485
2025-05-05 18:06:32.098,116651,16815,17117,68746,106495
2025-05-05 18:06:32.119,116647,16822,17129,68753,106500
2025-05-05 18:06:32.120,116648,16827,17141,68765,106523
2025-05-05 18:06:32.130,116659,16833,17143,68767,106519
2025-05-05 18:06:32.139,116657,16835,17152,68780,106527
2025-05-05 18:06:32.151,116650,16840,17156,68780,106532
2025-05-05 18:06:32.159,116652,16841,17163,68779,106530
2025-05-05 18:06:32.181,116638,16841,17160,68771,106523
2025-05-05 18:06:32.183,116644,16849,17164,68774,106524
2025-05-05 18:06:32.191,116651,16854,17171,68767,106501
2025-05-05 18:06:32.198,116646,16859,17175,68773,106510
2025-05-05 18:06:32.211,116673,16855,17178,68769,106504
2025-05-05 18:06:32.219,116665,16868,17189,68769,106520
2025-05-05 18:06:32.231,116679,16869,17191,68785,106524
2025-05-05 18:06:32.246,116671,16872,17196,68781,106527
2025-05-05 18:06:32.251,116674,16881,17196,68796,106535
2025-05-05 18:06:32.260,116666,16880,17204,68795,106532
2025-05-05 18:06:32.271,116664,16884,17203,68794,106519
2025-05-05 18:06:32.283,116655,16881,17204,68791,106521
2025-05-05 18:06:32.291,116655,16884,17204,68782,106513
2025-05-05 18:06:32.309,116641,16883,17203,68788,106492
2025-05-05 18:06:32.311,116657,16880,17201,68779,106492
2025-05-05 18:06:32.323,116650,16884,17198,68769,106482
2025-05-05 18:06:32.331,116636,16891,17197,68772,106479
2025-05-05 18:06:32.343,116648,16892,17204,68781,106487
2025-05-05 18:06:32.350,116651,16899,17208,68794,106484
2025-05-05 18:06:32.373,116633,16903,17212,68791,106479
2025-05-05 18:06:32.374,116634,16903,17209,68792,106479
2025-05-05 18:06:32.383,116644,16902,17215,68789,106468
2025-05-05 18:06:32.390,116632,16903,17214,68792,106469
2025-05-05 18:06:32.403,116620,16904,17207,68796,106459
2025-05-05 18:06:32.411,116610,16896,17204,68791,106468
2025-05-05 18:06:32.436,116594,16884,17204,68799,106464
2025-05-05 18:06:32.438,116590,16874,17183,68784,106455
2025-05-05 18:06:32.443,116566,16858,17168,68784,106436
2025-05-05 18:06:32.451,116561,16845,17150,68781,106422
2025-05-05 18:06:32.463,116545,16833,17131,68781,106409
2025-05-05 18:06:32.471,116537,16820,17118,68781,106421
2025-05-05 18:06:32.482,116529,16806,17106,68786,106410
2025-05-05 18:06:32.500,116515,16799,17094,68788,106404
2025-05-05 18:06:32.503,116515,16788,17077,68801,106393
2025-05-05 18:06:32.511,116508,16779,17075,68804,106394
2025-05-05 18:06:32.522,116487,16770,17063,68793,106376
2025-05-05 18:06:32.530,116491,16765,17053,68798,106364
2025-05-05 18:06:32.543,116474,16758,17048,68793,106370
2025-05-05 18:06:32.565,116466,16756,17050,68798,106355
2025-05-05 18:06:32.566,116452,16748,17048,68808,106349
2025-05-05 18:06:32.571,116440,16739,17040,68787,106331
2025-05-05 18:06:32.583,116434,16734,17034,68783,106308
2025-05-05 18:06:32.590,116419,16728,17025,68784,106292
2025-05-05 18:06:32.602,116431,16720,17029,68780,106291
2025-05-05 18:06:32.611,116411,16721,17027,68783,106294
2025-05-05 18:06:32.630,116410,16718,17024,68765,106267
2025-05-05 18:06:32.632,116394,16712,17018,68761,106249
2025-05-05 18:06:32.642,116394,16711,17016,68752,106235
2025-05-05 18:06:32.655,116398,16706,17012,68755,106241
2025-05-05 18:06:32.662,116389,16704,17015,68754,106228
2025-05-05 18:06:32.675,116403,16707,17020,68767,106233
2025-05-05 18:06:32.694,116397,16707,17023,68773,106240
2025-05-05 18:06:32.695,116395,16705,17031,68774,106239
2025-05-05 18:06:32.703,116384,16706,17034,68776,106232
2025-05-05 18:06:32.707,116384,16706,17034,68776,106232
2025-05-05 18:06:32.715,116377,16704,17032,68791,106225
2025-05-05 18:06:32.722,116389,16707,17029,68790,106233
2025-05-05 18:06:32.735,116380,16702,17028,68797,106219
2025-05-05 18:06:32.742,116364,16702,17032,68805,106215
2025-05-05 18:06:32.757,116367,16697,17027,68803,106209
2025-05-05 18:06:32.763,116383,16702,17030,68802,106208
2025-05-05 18:06:32.775,116377,16698,17032,68805,106213
2025-05-05 18:06:32.782,116384,16700,17030,68820,106203
2025-05-05 18:06:32.794,116387,16705,17040,68836,106237
2025-05-05 18:06:32.803,116375,16702,17043,68837,106223
2025-05-05 18:06:32.821,116368,16705,17041,68843,106227
2025-05-05 18:06:32.823,116370,16705,17043,68844,106220
2025-05-05 18:06:32.835,116371,16715,17050,68843,106232
2025-05-05 18:06:32.843,116383,16719,17062,68856,106248
2025-05-05 18:06:32.854,116389,16722,17073,68872,106255
2025-05-05 18:06:32.863,116375,16723,17075,68872,106266
2025-05-05 18:06:32.885,116375,16718,17079,68868,106252
2025-05-05 18:06:32.886,116354,16722,17076,68854,106244
2025-05-05 18:06:32.894,116345,16719,17075,68838,106229
2025-05-05 18:06:32.903,116344,16722,17073,68833,106210
2025-05-05 18:06:32.915,116358,16728,17076,68833,106235
2025-05-05 18:06:32.923,116375,16732,17080,68827,106232
2025-05-05 18:06:32.949,116368,16735,17091,68819,106228
2025-05-05 18:06:32.950,116371,16743,17099,68836,106243
2025-05-05 18:06:32.954,116375,16752,17111,68845,106270
2025-05-05 18:06:32.963,116373,16758,17118,68843,106285
2025-05-05 18:06:32.974,116366,16761,17122,68848,106278
2025-05-05 18:06:32.982,116371,16760,17128,68834,106270
2025-05-05 18:06:32.994,116370,16764,17131,68833,106277
2025-05-05 18:06:33.011,116359,16768,17135,68831,106282
2025-05-05 18:06:33.014,116367,16775,17147,68839,106295
2025-05-05 18:06:33.027,116395,16779,17150,68838,106286
2025-05-05 18:06:33.034,116379,16780,17154,68837,106301
2025-05-05 18:06:33.047,116390,16788,17161,68845,106306
2025-05-05 18:06:33.054,116392,16790,17160,68843,106310
2025-05-05 18:06:33.074,116398,16794,17175,68848,106307
2025-05-05 18:06:33.076,116388,16801,17177,68848,106315
2025-05-05 18:06:33.086,116383,16804,17179,68840,106308
2025-05-05 18:06:33.094,116375,16805,17182,68844,106302
2025-05-05 18:06:33.107,116389,16810,17186,68843,106312
2025-05-05 18:06:33.114,116400,16815,17195,68844,106329
2025-05-05 18:06:33.138,116415,16820,17200,68855,106345
2025-05-05 18:06:33.139,116431,16830,17209,68857,106334
2025-05-05 18:06:33.146,116437,16835,17216,68862,106343
2025-05-05 18:06:33.155,116431,16847,17227,68877,106364
2025-05-05 18:06:33.167,116438,16846,17234,68881,106370
2025-05-05 18:06:33.174,116428,16853,17239,68877,106378
2025-05-05 18:06:33.186,116420,16856,17239,68870,106367
2025-05-05 18:06:33.202,116414,16858,17246,68871,106352
2025-05-05 18:06:33.206,116414,16859,17245,68864,106358
2025-05-05 18:06:33.214,116409,16861,17243,68857,106345
2025-05-05 18:06:33.226,116409,16862,17252,68852,106338
2025-05-05 18:06:33.235,116414,16862,17253,68833,106325
2025-05-05 18:06:33.246,116394,16860,17255,68835,106303
2025-05-05 18:06:33.265,116370,16856,17247,68812,106281
2025-05-05 18:06:33.267,116366,16847,17241,68794,106258
2025-05-05 18:06:33.274,116349,16838,17232,68779,106233
2025-05-05 18:06:33.287,116319,16818,17220,68758,106203
2025-05-05 18:06:33.294,116303,16802,17193,68744,106189
2025-05-05 18:06:33.306,116286,16786,17169,68729,106152
2025-05-05 18:06:33.314,116255,16765,17144,68704,106137
2025-05-05 18:06:33.330,116232,16747,17120,68690,106095
2025-05-05 18:06:33.335,116213,16724,17088,68674,106077
2025-05-05 18:06:33.346,116198,16704,17062,68657,106063
2025-05-05 18:06:33.354,116188,16685,17045,68650,106039
2025-05-05 18:06:33.366,116177,16673,17029,68641,106033
2025-05-05 18:06:33.375,116160,16661,17019,68633,106031
2025-05-05 18:06:33.392,116152,16649,17001,68631,106032
2025-05-05 18:06:33.397,116137,16644,16988,68626,106012
2025-05-05 18:06:33.406,116140,16639,16982,68620,106018
