Timestamp,PPG1,PPG2,PPG3,PPG4,PPG5
2025-05-27 16:52:55.400,58469,12072,8535,31010,62067
2025-05-27 16:52:55.463,58485,12060,8544,31014,62091
2025-05-27 16:52:55.465,58476,12052,8525,31021,62072
2025-05-27 16:52:55.467,58468,12058,8529,31031,62092
2025-05-27 16:52:55.478,58488,12047,8527,31026,62093
2025-05-27 16:52:55.480,58507,12058,8529,31040,62100
2025-05-27 16:52:55.482,58520,12065,8518,31029,62100
2025-05-27 16:52:55.484,58527,12049,8527,31025,62103
2025-05-27 16:52:55.486,58561,12054,8511,31023,62098
2025-05-27 16:52:55.490,58571,12040,8525,31027,62098
2025-05-27 16:52:55.492,58587,12038,8521,31019,62096
2025-05-27 16:52:55.494,58631,12038,8499,31031,62114
2025-05-27 16:52:55.496,58657,12046,8510,31055,62112
2025-05-27 16:52:55.498,58673,12025,8503,31053,62114
2025-05-27 16:52:55.500,58701,12032,8514,31045,62114
2025-05-27 16:52:55.502,58739,12025,8505,31052,62114
2025-05-27 16:52:55.504,58794,12021,8481,31042,62100
2025-05-27 16:52:55.505,58830,12012,8473,31046,62097
2025-05-27 16:52:55.507,58908,11995,8487,31041,62078
2025-05-27 16:52:55.510,58998,11987,8472,31039,62082
2025-05-27 16:52:55.918,59083,11986,8473,31025,62051
2025-05-27 16:52:55.919,59179,11992,8469,31034,62031
2025-05-27 16:52:55.920,59258,11976,8467,31041,62028
2025-05-27 16:52:55.922,59379,11959,8460,31040,62038
2025-05-27 16:52:55.923,59472,11959,8443,31047,62019
2025-05-27 16:52:55.925,59568,11947,8445,31053,62034
2025-05-27 16:52:55.926,59668,11937,8441,31046,62009
2025-05-27 16:52:55.926,59772,11952,8440,31046,61981
2025-05-27 16:52:55.927,59838,11934,8433,31048,61973
2025-05-27 16:52:55.928,59895,11923,8421,31033,61938
2025-05-27 16:52:55.929,59952,11909,8434,31015,61905
2025-05-27 16:52:55.929,60012,11914,8427,30987,61852
2025-05-27 16:52:55.930,60091,11920,8414,30993,61846
2025-05-27 16:52:55.931,60117,11916,8413,30977,61815
2025-05-27 16:52:55.932,60158,11914,8421,30965,61776
2025-05-27 16:52:55.933,60204,11886,8403,30954,61751
2025-05-27 16:52:55.934,60249,11907,8407,30959,61750
2025-05-27 16:52:55.935,60267,11907,8396,30950,61731
2025-05-27 16:52:55.936,60290,11916,8414,30947,61728
2025-05-27 16:52:55.937,60308,11905,8407,30946,61712
2025-05-27 16:52:55.939,60339,11905,8397,30949,61702
2025-05-27 16:52:55.940,60351,11912,8389,30926,61720
2025-05-27 16:52:55.941,60351,11912,8389,30926,61720
2025-05-27 16:52:55.943,60381,11892,8403,30950,61703
2025-05-27 16:52:55.944,60365,11929,8395,30938,61692
2025-05-27 16:52:55.945,60373,11901,8405,30946,61698
2025-05-27 16:52:55.946,60365,11890,8396,30941,61698
2025-05-27 16:52:55.947,60370,11918,8404,30950,61693
2025-05-27 16:52:55.947,60368,11900,8373,30933,61700
2025-05-27 16:52:55.948,60376,11898,8394,30952,61703
2025-05-27 16:52:55.949,60383,11882,8371,30939,61705
2025-05-27 16:52:55.950,60387,11884,8356,30950,61695
2025-05-27 16:52:55.950,60395,11893,8379,30949,61693
2025-05-27 16:52:55.951,60419,11870,8370,30942,61689
2025-05-27 16:52:55.952,60433,11876,8375,30948,61687
2025-05-27 16:52:55.953,60439,11881,8359,30951,61687
2025-05-27 16:52:55.954,60429,11872,8362,30944,61710
2025-05-27 16:52:55.956,60434,11882,8357,30953,61687
2025-05-27 16:52:55.957,60454,11888,8365,30956,61703
2025-05-27 16:52:55.957,60449,11861,8343,30956,61705
2025-05-27 16:52:55.958,60455,11865,8349,30972,61705
2025-05-27 16:52:55.959,60455,11865,8349,30972,61705
2025-05-27 16:52:55.960,60468,11876,8360,30957,61708
2025-05-27 16:52:55.960,60489,11856,8338,30965,61722
2025-05-27 16:52:55.961,60488,11871,8342,30986,61718
2025-05-27 16:52:55.962,60503,11863,8340,30976,61720
2025-05-27 16:52:55.963,60514,11872,8322,30977,61706
2025-05-27 16:52:55.964,60508,11875,8344,30988,61714
2025-05-27 16:52:55.965,60521,11864,8343,30975,61737
2025-05-27 16:52:55.983,60524,11850,8351,30991,61717
2025-05-27 16:52:55.985,60510,11876,8336,30988,61722
2025-05-27 16:52:55.986,60498,11882,8337,30997,61749
2025-05-27 16:52:55.988,60513,11864,8340,30989,61730
2025-05-27 16:52:55.996,60516,11877,8342,30999,61747
2025-05-27 16:52:56.008,60528,11866,8323,30994,61745
2025-05-27 16:52:56.016,60536,11882,8355,31002,61743
2025-05-27 16:52:56.027,60535,11857,8334,30998,61731
2025-05-27 16:52:56.048,60559,11876,8332,31007,61754
2025-05-27 16:52:56.050,60594,11869,8340,31001,61742
2025-05-27 16:52:56.055,60561,11865,8336,31009,61738
2025-05-27 16:52:56.068,60588,11865,8334,30992,61746
2025-05-27 16:52:56.076,60567,11851,8326,31008,61734
2025-05-27 16:52:56.087,60578,11867,8333,30997,61727
2025-05-27 16:52:56.095,60601,11864,8329,31000,61734
2025-05-27 16:52:56.114,60604,11865,8329,31016,61749
2025-05-27 16:52:56.116,60612,11874,8335,31003,61735
2025-05-27 16:52:56.128,60620,11856,8329,31007,61745
2025-05-27 16:52:56.136,60636,11855,8329,31019,61748
2025-05-27 16:52:56.148,60639,11856,8329,31013,61735
2025-05-27 16:52:56.156,60646,11864,8338,31012,61746
2025-05-27 16:52:56.180,60672,11865,8344,31013,61741
2025-05-27 16:52:56.181,60672,11872,8359,31021,61756
2025-05-27 16:52:56.188,60707,11866,8348,31015,61753
2025-05-27 16:52:56.196,60691,11877,8342,31019,61759
2025-05-27 16:52:56.208,60699,11874,8340,31040,61758
2025-05-27 16:52:56.216,60714,11883,8338,31022,61775
2025-05-27 16:52:56.227,60728,11870,8342,31052,61771
2025-05-27 16:52:56.248,60731,11875,8350,31043,61797
2025-05-27 16:52:56.250,60730,11893,8348,31042,61782
2025-05-27 16:52:56.260,60733,11880,8349,31054,61776
2025-05-27 16:52:56.268,60724,11868,8347,31061,61789
2025-05-27 16:52:56.279,60722,11870,8355,31067,61792
2025-05-27 16:52:56.281,60722,11870,8355,31067,61792
2025-05-27 16:52:56.288,60701,11893,8357,31071,61849
2025-05-27 16:52:56.314,60695,11876,8353,31094,61870
2025-05-27 16:52:56.315,60688,11911,8372,31114,61890
2025-05-27 16:52:56.320,60681,11907,8379,31121,61908
2025-05-27 16:52:56.328,60670,11919,8384,31126,61946
2025-05-27 16:52:56.341,60646,11930,8391,31159,61979
2025-05-27 16:52:56.348,60601,11936,8388,31184,62020
2025-05-27 16:52:56.359,60542,11921,8392,31194,62058
2025-05-27 16:52:56.380,60496,11918,8387,31203,62053
2025-05-27 16:52:56.382,60454,11896,8383,31193,62058
2025-05-27 16:52:56.388,60365,11900,8363,31193,62045
2025-05-27 16:52:56.401,60312,11877,8360,31172,62010
2025-05-27 16:52:56.408,60264,11854,8343,31159,61971
2025-05-27 16:52:56.420,60200,11845,8336,31155,61941
2025-05-27 16:52:56.428,60114,11835,8328,31155,61973
2025-05-27 16:52:56.447,60030,11824,8312,31205,62042
2025-05-27 16:52:56.449,59921,11832,8312,31252,62114
2025-05-27 16:52:56.460,59759,11841,8314,31269,62165
2025-05-27 16:52:56.468,59568,11859,8337,31254,62176
2025-05-27 16:52:56.480,59365,11843,8327,31233,62169
2025-05-27 16:52:56.488,59134,11847,8325,31252,62217
2025-05-27 16:52:56.519,58975,11847,8317,31292,62310
2025-05-27 16:52:56.521,58833,11861,8325,31359,62393
2025-05-27 16:52:56.522,58720,11863,8328,31415,62508
2025-05-27 16:52:56.528,58626,11868,8332,31451,62590
2025-05-27 16:52:56.540,58532,11882,8330,31495,62701
2025-05-27 16:52:56.552,58466,11888,8351,31587,62784
2025-05-27 16:52:56.560,58423,11907,8342,31642,62859
2025-05-27 16:52:56.591,58376,11890,8353,31684,62946
2025-05-27 16:52:56.593,58368,11919,8358,31713,63021
2025-05-27 16:52:56.594,58351,11907,8349,31771,63095
2025-05-27 16:52:56.601,58412,11924,8373,31768,63059
2025-05-27 16:52:56.612,58533,11933,8383,31810,63152
2025-05-27 16:52:56.620,58705,11953,8391,31864,63256
2025-05-27 16:52:56.632,58896,11958,8406,31920,63320
2025-05-27 16:52:56.639,59088,11953,8433,31972,63359
2025-05-27 16:52:56.671,59298,11966,8426,32013,63406
2025-05-27 16:52:56.673,59544,11958,8442,32077,63454
2025-05-27 16:52:56.675,59879,11948,8425,32155,63493
2025-05-27 16:52:56.680,60362,11921,8454,32210,63517
2025-05-27 16:52:56.692,60927,11918,8446,32331,63562
2025-05-27 16:52:56.700,61525,11913,8443,32515,63662
2025-05-27 16:52:56.713,62102,11885,8443,32747,63809
2025-05-27 16:52:56.720,62590,11871,8444,32972,63964
2025-05-27 16:52:56.748,63070,11852,8438,33228,64179
2025-05-27 16:52:56.750,63637,11842,8422,33500,64430
2025-05-27 16:52:56.752,64320,11865,8412,33831,64778
2025-05-27 16:52:56.760,64982,11857,8401,34301,65313
2025-05-27 16:52:56.772,65562,11871,8398,34770,65865
2025-05-27 16:52:56.780,66146,11872,8402,35245,66442
2025-05-27 16:52:56.791,66746,11889,8372,35765,67090
2025-05-27 16:52:56.814,67323,11906,8366,36376,67834
2025-05-27 16:52:56.815,67750,11899,8366,36928,68525
2025-05-27 16:52:56.820,68149,11899,8356,37409,69114
2025-05-27 16:52:56.832,68483,11897,8350,37821,69609
2025-05-27 16:52:56.844,68773,11881,8339,38185,70064
2025-05-27 16:52:56.852,68999,11855,8319,38465,70414
2025-05-27 16:52:56.880,69202,11825,8305,38676,70690
2025-05-27 16:52:56.882,69375,11825,8303,38821,70871
2025-05-27 16:52:56.883,69569,11803,8295,39016,71082
2025-05-27 16:52:56.892,69715,11788,8284,39196,71329
2025-05-27 16:52:56.903,69907,11764,8278,39326,71504
2025-05-27 16:52:56.912,70066,11749,8275,39490,71689
2025-05-27 16:52:56.924,70228,11734,8273,39610,71887
2025-05-27 16:52:56.947,70340,11729,8278,39755,72069
2025-05-27 16:52:56.948,70439,11712,8264,39850,72194
2025-05-27 16:52:56.951,70537,11725,8268,39916,72333
2025-05-27 16:52:56.964,70584,11710,8258,39968,72412
2025-05-27 16:52:56.971,70666,11690,8247,40041,72484
2025-05-27 16:52:56.983,70727,11702,8253,40070,72570
2025-05-27 16:52:56.991,70833,11714,8257,40126,72692
2025-05-27 16:52:57.012,70917,11720,8243,40251,72813
2025-05-27 16:52:57.013,71024,11699,8237,40325,72918
2025-05-27 16:52:57.024,71122,11688,8219,40398,73000
2025-05-27 16:52:57.032,71149,11683,8234,40452,73076
2025-05-27 16:52:57.043,71184,11683,8217,40410,73050
2025-05-27 16:52:57.052,71125,11683,8227,40381,73036
2025-05-27 16:52:57.078,71071,11719,8236,40309,72984
2025-05-27 16:52:57.079,70924,11744,8249,40222,72902
2025-05-27 16:52:57.083,70769,11770,8259,40137,72827
2025-05-27 16:52:57.092,70455,11805,8262,39935,72582
2025-05-27 16:52:57.104,70074,11804,8284,39627,72237
2025-05-27 16:52:57.112,69688,11816,8311,39261,71739
2025-05-27 16:52:57.124,69280,11821,8341,38896,71262
2025-05-27 16:52:57.147,68820,11800,8343,38507,70716
2025-05-27 16:52:57.148,68170,11758,8349,37940,69931
2025-05-27 16:52:57.156,67510,11713,8385,37264,69023
2025-05-27 16:52:57.164,66736,11693,8398,36598,68139
2025-05-27 16:52:57.176,65893,11682,8406,35974,67287
2025-05-27 16:52:57.184,65175,11656,8428,35365,66601
2025-05-27 16:52:57.196,64599,11689,8448,34968,66220
2025-05-27 16:52:57.217,64007,11714,8484,34665,65976
2025-05-27 16:52:57.219,63318,11739,8488,34379,65722
2025-05-27 16:52:57.224,62630,11759,8492,34066,65486
2025-05-27 16:52:57.236,62023,11816,8510,33834,65368
2025-05-27 16:52:57.244,61506,11851,8498,33681,65336
2025-05-27 16:52:57.256,61158,11880,8503,33596,65321
2025-05-27 16:52:57.264,60831,11902,8500,33541,65354
2025-05-27 16:52:57.289,60433,11926,8486,33496,65385
2025-05-27 16:52:57.291,60012,11930,8478,33436,65401
2025-05-27 16:52:57.297,59595,11955,8460,33392,65360
2025-05-27 16:52:57.303,59178,11982,8452,33363,65424
2025-05-27 16:52:57.316,58819,11972,8442,33378,65563
2025-05-27 16:52:57.324,58518,12012,8438,33434,65770
2025-05-27 16:52:57.336,58298,11988,8429,33499,66004
2025-05-27 16:52:57.356,58021,12017,8444,33594,66260
2025-05-27 16:52:57.357,57684,11987,8402,33702,66439
2025-05-27 16:52:57.363,57399,12004,8377,33805,66624
2025-05-27 16:52:57.376,57188,11962,8361,33890,66785
2025-05-27 16:52:57.383,57005,11941,8336,33998,66941
2025-05-27 16:52:57.396,56858,11946,8303,34103,67096
2025-05-27 16:52:57.404,56716,11908,8300,34219,67211
2025-05-27 16:52:57.423,56624,11913,8290,34309,67341
2025-05-27 16:52:57.424,56534,11880,8290,34377,67409
2025-05-27 16:52:57.435,56471,11907,8276,34417,67474
2025-05-27 16:52:57.447,56424,11869,8266,34450,67524
2025-05-27 16:52:57.455,56378,11877,8273,34480,67568
2025-05-27 16:52:57.468,56349,11860,8270,34480,67583
2025-05-27 16:52:57.488,56304,11847,8262,34493,67614
2025-05-27 16:52:57.490,56286,11840,8265,34488,67609
2025-05-27 16:52:57.493,56286,11840,8265,34488,67609
2025-05-27 16:52:57.496,56257,11839,8240,34460,67604
2025-05-27 16:52:57.508,56239,11829,8263,34464,67608
2025-05-27 16:52:57.515,56228,11815,8244,34460,67588
2025-05-27 16:52:57.528,56216,11815,8259,34449,67569
2025-05-27 16:52:57.535,56204,11796,8230,34440,67563
2025-05-27 16:52:57.555,56198,11795,8241,34443,67561
2025-05-27 16:52:57.557,56170,11782,8228,34428,67550
2025-05-27 16:52:57.568,56147,11778,8223,34422,67531
2025-05-27 16:52:57.575,56136,11757,8217,34404,67511
2025-05-27 16:52:57.587,56117,11755,8221,34403,67506
2025-05-27 16:52:57.595,56103,11753,8232,34393,67495
2025-05-27 16:52:57.622,56104,11743,8206,34384,67488
2025-05-27 16:52:57.624,56077,11728,8221,34383,67488
2025-05-27 16:52:57.628,56065,11732,8211,34393,67490
2025-05-27 16:52:57.636,56065,11723,8206,34375,67461
2025-05-27 16:52:57.648,56062,11713,8221,34359,67474
2025-05-27 16:52:57.656,56048,11717,8200,34367,67456
2025-05-27 16:52:57.668,56042,11708,8208,34359,67444
2025-05-27 16:52:57.695,56025,11699,8187,34329,67446
2025-05-27 16:52:57.697,56015,11696,8207,34331,67442
2025-05-27 16:52:57.699,56008,11694,8197,34331,67420
2025-05-27 16:52:57.708,56009,11685,8205,34318,67416
2025-05-27 16:52:57.715,56007,11690,8190,34312,67390
2025-05-27 16:52:57.729,55985,11690,8193,34298,67400
2025-05-27 16:52:57.740,55992,11675,8189,34290,67374
2025-05-27 16:52:57.767,55983,11674,8193,34270,67373
2025-05-27 16:52:57.770,55980,11668,8190,34261,67353
2025-05-27 16:52:57.771,55987,11652,8186,34251,67338
2025-05-27 16:52:57.781,55988,11650,8183,34246,67311
2025-05-27 16:52:57.788,55977,11656,8191,34228,67295
2025-05-27 16:52:57.800,55975,11650,8183,34229,67282
2025-05-27 16:52:57.808,55978,11648,8177,34222,67275
2025-05-27 16:52:57.839,55976,11647,8179,34204,67261
2025-05-27 16:52:57.841,55977,11630,8183,34195,67238
2025-05-27 16:52:57.842,55968,11627,8169,34174,67231
2025-05-27 16:52:57.848,55966,11622,8168,34185,67208
2025-05-27 16:52:57.859,55967,11629,8175,34160,67203
2025-05-27 16:52:57.867,55980,11614,8171,34171,67182
2025-05-27 16:52:57.880,55983,11610,8166,34150,67145
2025-05-27 16:52:57.888,55987,11606,8169,34130,67131
2025-05-27 16:52:57.907,55992,11595,8153,34090,67072
2025-05-27 16:52:57.908,55990,11588,8160,34084,67045
2025-05-27 16:52:57.919,56019,11587,8151,34074,67025
2025-05-27 16:52:57.927,56022,11575,8151,34034,66972
2025-05-27 16:52:57.940,56038,11555,8130,34007,66933
2025-05-27 16:52:57.948,56052,11544,8141,33962,66858
2025-05-27 16:52:57.971,56074,11527,8121,33937,66782
2025-05-27 16:52:57.973,56093,11502,8106,33900,66710
2025-05-27 16:52:57.979,56132,11489,8092,33836,66616
2025-05-27 16:52:57.988,56181,11477,8089,33789,66516
2025-05-27 16:52:58.000,56227,11457,8072,33703,66362
2025-05-27 16:52:58.008,56279,11438,8058,33630,66212
2025-05-27 16:52:58.020,56357,11393,8038,33528,66030
2025-05-27 16:52:58.040,56442,11377,8016,33417,65837
2025-05-27 16:52:58.042,56520,11349,7995,33315,65645
2025-05-27 16:52:58.052,56587,11333,7978,33227,65464
2025-05-27 16:52:58.060,56662,11296,7957,33121,65272
2025-05-27 16:52:58.072,56745,11274,7951,33001,65078
2025-05-27 16:52:58.079,56807,11251,7925,32938,64892
2025-05-27 16:52:58.110,56903,11230,7918,32824,64712
2025-05-27 16:52:58.111,57016,11206,7908,32749,64539
2025-05-27 16:52:58.113,57125,11170,7886,32648,64317
2025-05-27 16:52:58.120,57244,11148,7876,32516,64099
2025-05-27 16:52:58.131,57389,11121,7849,32403,63883
2025-05-27 16:52:58.139,57491,11096,7825,32313,63675
2025-05-27 16:52:58.151,57604,11079,7818,32253,63515
2025-05-27 16:52:58.175,57713,11060,7811,32144,63336
2025-05-27 16:52:58.177,57813,11056,7817,32096,63171
2025-05-27 16:52:58.179,57898,11036,7787,31984,63002
2025-05-27 16:52:58.191,57980,10999,7774,31933,62830
2025-05-27 16:52:58.199,58052,10964,7768,31834,62647
2025-05-27 16:52:58.211,58132,10950,7767,31801,62482
2025-05-27 16:52:58.219,58183,10928,7737,31751,62359
2025-05-27 16:52:58.243,58262,10893,7730,31678,62238
2025-05-27 16:52:58.245,58336,10884,7719,31671,62122
2025-05-27 16:52:58.251,58414,10867,7727,31592,62005
2025-05-27 16:52:58.260,58490,10847,7704,31587,61907
2025-05-27 16:52:58.271,58540,10831,7689,31507,61814
2025-05-27 16:52:58.280,58597,10820,7672,31488,61725
2025-05-27 16:52:58.291,58663,10823,7670,31458,61658
2025-05-27 16:52:58.311,58705,10801,7653,31440,61601
2025-05-27 16:52:58.312,58763,10790,7642,31399,61538
2025-05-27 16:52:58.320,58806,10776,7646,31363,61457
2025-05-27 16:52:58.332,58874,10779,7646,31346,61415
2025-05-27 16:52:58.344,58927,10784,7638,31305,61334
2025-05-27 16:52:58.351,58985,10791,7641,31282,61293
2025-05-27 16:52:58.379,59071,10785,7636,31243,61236
2025-05-27 16:52:58.380,59120,10788,7645,31210,61214
2025-05-27 16:52:58.383,59181,10802,7645,31198,61178
2025-05-27 16:52:58.392,59242,10814,7644,31177,61144
2025-05-27 16:52:58.404,59279,10826,7652,31159,61158
2025-05-27 16:52:58.411,59330,10814,7652,31143,61119
2025-05-27 16:52:58.424,59361,10813,7649,31110,61092
2025-05-27 16:52:58.447,59410,10817,7655,31114,61067
2025-05-27 16:52:58.448,59460,10815,7664,31081,61024
2025-05-27 16:52:58.452,59516,10818,7671,31058,61005
2025-05-27 16:52:58.464,59560,10827,7654,31045,60924
2025-05-27 16:52:58.471,59609,10822,7657,31025,60947
2025-05-27 16:52:58.483,59678,10815,7651,31003,60864
2025-05-27 16:52:58.492,59727,10818,7647,30985,60837
2025-05-27 16:52:58.518,59788,10831,7653,30952,60817
2025-05-27 16:52:58.520,59851,10824,7636,30941,60767
2025-05-27 16:52:58.524,59896,10808,7650,30917,60747
2025-05-27 16:52:58.532,59946,10810,7665,30897,60648
2025-05-27 16:52:58.543,59984,10809,7648,30869,60669
2025-05-27 16:52:58.552,60027,10795,7657,30835,60591
2025-05-27 16:52:58.564,60059,10812,7650,30825,60569
2025-05-27 16:52:58.585,60091,10803,7641,30811,60508
2025-05-27 16:52:58.587,60129,10780,7641,30803,60456
2025-05-27 16:52:58.591,60158,10788,7644,30781,60424
2025-05-27 16:52:58.604,60210,10779,7631,30748,60364
2025-05-27 16:52:58.611,60262,10780,7633,30715,60339
2025-05-27 16:52:58.623,60279,10782,7650,30708,60300
2025-05-27 16:52:58.635,60320,10777,7636,30668,60261
2025-05-27 16:52:58.652,60361,10770,7639,30679,60232
2025-05-27 16:52:58.655,60416,10760,7638,30663,60213
2025-05-27 16:52:58.664,60453,10755,7617,30649,60178
2025-05-27 16:52:58.675,60497,10747,7632,30612,60120
2025-05-27 16:52:58.683,60522,10739,7636,30593,60080
2025-05-27 16:52:58.694,60544,10731,7639,30602,60046
2025-05-27 16:52:58.700,60544,10731,7639,30602,60046
2025-05-27 16:52:58.718,60581,10722,7614,30541,59951
2025-05-27 16:52:58.720,60578,10705,7606,30522,59901
2025-05-27 16:52:58.723,60600,10698,7603,30477,59860
2025-05-27 16:52:58.736,60626,10694,7610,30529,59805
2025-05-27 16:52:58.743,60668,10666,7601,30469,59761
2025-05-27 16:52:58.756,60699,10666,7596,30464,59737
2025-05-27 16:52:58.763,60706,10666,7594,30456,59696
2025-05-27 16:52:58.786,60737,10661,7593,30439,59650
2025-05-27 16:52:58.787,60752,10645,7584,30426,59626
2025-05-27 16:52:58.796,60771,10644,7579,30424,59603
2025-05-27 16:52:58.803,60803,10650,7581,30396,59569
2025-05-27 16:52:58.815,60788,10643,7578,30384,59536
2025-05-27 16:52:58.823,60815,10643,7584,30382,59524
2025-05-27 16:52:58.853,60804,10644,7577,30365,59501
2025-05-27 16:52:58.854,60815,10650,7588,30363,59505
2025-05-27 16:52:58.856,60809,10641,7595,30352,59494
2025-05-27 16:52:58.864,60800,10653,7591,30354,59508
2025-05-27 16:52:58.876,60809,10652,7580,30355,59524
2025-05-27 16:52:58.883,60818,10663,7608,30361,59523
2025-05-27 16:52:58.895,60819,10663,7595,30357,59529
2025-05-27 16:52:58.918,60813,10650,7608,30352,59534
2025-05-27 16:52:58.919,60818,10659,7602,30336,59514
2025-05-27 16:52:58.927,60814,10661,7604,30351,59506
2025-05-27 16:52:58.935,60795,10672,7611,30339,59516
2025-05-27 16:52:58.947,60787,10669,7612,30354,59522
2025-05-27 16:52:58.956,60783,10682,7614,30365,59541
2025-05-27 16:52:58.984,60796,10699,7636,30365,59553
2025-05-27 16:52:58.985,60764,10701,7629,30367,59541
2025-05-27 16:52:58.987,60765,10721,7648,30379,59558
2025-05-27 16:52:58.995,60756,10716,7641,30374,59559
2025-05-27 16:52:59.007,60759,10710,7659,30369,59547
2025-05-27 16:52:59.016,60746,10730,7664,30369,59572
2025-05-27 16:52:59.027,60751,10730,7654,30364,59552
2025-05-27 16:52:59.050,60743,10736,7661,30363,59579
2025-05-27 16:52:59.052,60725,10746,7658,30387,59588
2025-05-27 16:52:59.055,60710,10740,7674,30367,59572
2025-05-27 16:52:59.067,60704,10751,7661,30362,59575
2025-05-27 16:52:59.076,60709,10744,7667,30386,59575
2025-05-27 16:52:59.087,60709,10760,7677,30368,59557
2025-05-27 16:52:59.094,60685,10739,7683,30369,59569
2025-05-27 16:52:59.117,60693,10755,7696,30364,59569
2025-05-27 16:52:59.119,60686,10765,7695,30382,59583
2025-05-27 16:52:59.127,60682,10759,7696,30364,59562
2025-05-27 16:52:59.135,60682,10763,7694,30369,59593
2025-05-27 16:52:59.148,60692,10777,7698,30363,59568
2025-05-27 16:52:59.156,60681,10776,7706,30367,59570
2025-05-27 16:52:59.185,60691,10777,7698,30367,59580
2025-05-27 16:52:59.187,60687,10780,7705,30361,59585
2025-05-27 16:52:59.188,60702,10783,7703,30351,59577
2025-05-27 16:52:59.200,60682,10810,7710,30343,59575
2025-05-27 16:52:59.207,60684,10792,7716,30349,59592
2025-05-27 16:52:59.219,60688,10801,7710,30340,59592
2025-05-27 16:52:59.227,60685,10791,7718,30358,59599
2025-05-27 16:52:59.251,60681,10802,7730,30360,59593
2025-05-27 16:52:59.253,60675,10806,7714,30358,59600
2025-05-27 16:52:59.259,60664,10798,7725,30361,59604
2025-05-27 16:52:59.267,60645,10798,7730,30363,59604
2025-05-27 16:52:59.280,60643,10802,7718,30375,59606
2025-05-27 16:52:59.287,60634,10797,7724,30358,59579
2025-05-27 16:52:59.300,60626,10814,7721,30364,59604
2025-05-27 16:52:59.321,60626,10806,7722,30368,59619
2025-05-27 16:52:59.323,60606,10809,7728,30351,59624
2025-05-27 16:52:59.327,60612,10816,7732,30367,59607
2025-05-27 16:52:59.339,60581,10799,7728,30358,59614
2025-05-27 16:52:59.347,60578,10806,7726,30346,59621
2025-05-27 16:52:59.359,60546,10821,7740,30355,59620
2025-05-27 16:52:59.367,60534,10814,7737,30342,59628
2025-05-27 16:52:59.389,60510,10822,7747,30360,59631
2025-05-27 16:52:59.390,60491,10837,7749,30352,59639
2025-05-27 16:52:59.399,60466,10816,7757,30365,59660
2025-05-27 16:52:59.407,60420,10824,7762,30381,59657
2025-05-27 16:52:59.420,60395,10813,7766,30370,59671
2025-05-27 16:52:59.428,60368,10840,7758,30372,59671
2025-05-27 16:52:59.456,60332,10831,7770,30366,59678
2025-05-27 16:52:59.458,60328,10812,7769,30390,59686
2025-05-27 16:52:59.459,60291,10839,7771,30380,59699
2025-05-27 16:52:59.468,60277,10825,7763,30379,59704
2025-05-27 16:52:59.479,60249,10840,7772,30389,59714
2025-05-27 16:52:59.491,60247,10830,7773,30395,59707
2025-05-27 16:52:59.499,60231,10838,7778,30391,59714
2025-05-27 16:52:59.524,60203,10836,7781,30389,59727
2025-05-27 16:52:59.525,60196,10841,7780,30391,59739
2025-05-27 16:52:59.531,60160,10855,7797,30386,59743
2025-05-27 16:52:59.539,60159,10851,7798,30388,59742
2025-05-27 16:52:59.551,60149,10859,7790,30389,59736
2025-05-27 16:52:59.559,60143,10853,7805,30406,59732
2025-05-27 16:52:59.573,60155,10844,7785,30405,59723
2025-05-27 16:52:59.597,60151,10846,7804,30391,59728
2025-05-27 16:52:59.599,60135,10854,7782,30395,59741
2025-05-27 16:52:59.600,60139,10860,7799,30395,59728
2025-05-27 16:52:59.611,60116,10874,7801,30402,59730
2025-05-27 16:52:59.619,60098,10862,7811,30384,59741
2025-05-27 16:52:59.631,60109,10863,7816,30390,59735
2025-05-27 16:52:59.639,60118,10860,7821,30387,59735
2025-05-27 16:52:59.663,60107,10859,7823,30381,59733
2025-05-27 16:52:59.665,60096,10883,7808,30377,59730
2025-05-27 16:52:59.671,60097,10866,7827,30383,59717
2025-05-27 16:52:59.680,60107,10865,7819,30384,59719
2025-05-27 16:52:59.691,60093,10874,7827,30369,59720
2025-05-27 16:52:59.700,60089,10881,7820,30380,59711
2025-05-27 16:52:59.711,60100,10880,7829,30378,59711
2025-05-27 16:52:59.733,60086,10863,7823,30380,59713
2025-05-27 16:52:59.734,60096,10894,7826,30374,59713
2025-05-27 16:52:59.739,60093,10888,7845,30375,59725
2025-05-27 16:52:59.752,60095,10886,7828,30370,59714
2025-05-27 16:52:59.759,60090,10903,7860,30370,59725
2025-05-27 16:52:59.772,60088,10895,7836,30357,59710
2025-05-27 16:52:59.800,60100,10898,7852,30368,59697
2025-05-27 16:52:59.802,60083,10908,7849,30362,59714
2025-05-27 16:52:59.803,60073,10908,7850,30364,59733
2025-05-27 16:52:59.811,60048,10903,7855,30384,59707
2025-05-27 16:52:59.823,60060,10915,7856,30378,59725
2025-05-27 16:52:59.832,60071,10915,7876,30367,59734
2025-05-27 16:52:59.844,60056,10917,7865,30375,59738
2025-05-27 16:52:59.868,60047,10932,7874,30375,59735
2025-05-27 16:52:59.870,60023,10932,7869,30362,59737
2025-05-27 16:52:59.871,60029,10922,7886,30374,59757
2025-05-27 16:52:59.883,60018,10932,7869,30379,59745
2025-05-27 16:52:59.891,60000,10940,7879,30387,59758
2025-05-27 16:52:59.904,60003,10924,7878,30389,59762
2025-05-27 16:52:59.907,60003,10924,7878,30389,59762
2025-05-27 16:52:59.911,60001,10930,7889,30371,59737
2025-05-27 16:52:59.936,59998,10933,7879,30381,59737
2025-05-27 16:52:59.938,59992,10928,7881,30383,59747
2025-05-27 16:52:59.943,59995,10923,7882,30378,59744
2025-05-27 16:52:59.951,60001,10938,7889,30385,59729
2025-05-27 16:52:59.963,60002,10925,7898,30370,59748
2025-05-27 16:52:59.971,59982,10929,7878,30377,59757
2025-05-27 16:52:59.983,59987,10928,7883,30375,59747
2025-05-27 16:53:00.007,59976,10920,7896,30367,59752
2025-05-27 16:53:00.009,59984,10927,7884,30366,59767
2025-05-27 16:53:00.012,59963,10917,7884,30388,59748
2025-05-27 16:53:00.022,59944,10922,7885,30376,59750
2025-05-27 16:53:00.031,59942,10923,7890,30377,59756
2025-05-27 16:53:00.043,59946,10922,7888,30374,59740
2025-05-27 16:53:00.050,59926,10940,7876,30390,59765
2025-05-27 16:53:00.080,59922,10937,7892,30364,59749
2025-05-27 16:53:00.082,59917,10923,7902,30374,59770
2025-05-27 16:53:00.084,59926,10935,7901,30393,59764
2025-05-27 16:53:00.095,59915,10931,7891,30388,59755
2025-05-27 16:53:00.104,59919,10932,7903,30381,59756
2025-05-27 16:53:00.116,59901,10949,7884,30382,59768
2025-05-27 16:53:00.123,59911,10934,7900,30392,59773
2025-05-27 16:53:00.158,59901,10947,7903,30388,59775
2025-05-27 16:53:00.160,59892,10942,7903,30391,59775
2025-05-27 16:53:00.162,59887,10939,7905,30391,59780
2025-05-27 16:53:00.164,59887,10934,7908,30387,59776
2025-05-27 16:53:00.175,59908,10940,7908,30380,59788
2025-05-27 16:53:00.183,59905,10956,7915,30387,59780
2025-05-27 16:53:00.195,59897,10955,7902,30385,59768
2025-05-27 16:53:00.204,59886,10955,7930,30374,59764
2025-05-27 16:53:00.230,59868,10947,7920,30365,59769
2025-05-27 16:53:00.231,59859,10938,7915,30382,59771
2025-05-27 16:53:00.235,59868,10953,7927,30373,59761
2025-05-27 16:53:00.243,59841,10951,7917,30383,59767
2025-05-27 16:53:00.255,59835,10945,7926,30374,59761
2025-05-27 16:53:00.263,59830,10951,7930,30371,59767
2025-05-27 16:53:00.275,59836,10958,7924,30390,59765
2025-05-27 16:53:00.296,59845,10962,7920,30378,59766
2025-05-27 16:53:00.297,59851,10960,7926,30381,59764
2025-05-27 16:53:00.307,59856,10955,7924,30384,59765
2025-05-27 16:53:00.314,59843,10970,7934,30375,59774
2025-05-27 16:53:00.323,59845,10973,7922,30382,59771
2025-05-27 16:53:00.336,59841,10965,7930,30367,59768
2025-05-27 16:53:00.361,59873,10970,7935,30389,59771
2025-05-27 16:53:00.363,59849,10969,7946,30367,59790
2025-05-27 16:53:00.367,59840,10968,7942,30375,59793
2025-05-27 16:53:00.375,59845,10970,7943,30373,59788
2025-05-27 16:53:00.387,59849,10984,7946,30383,59791
2025-05-27 16:53:00.395,59814,10961,7949,30370,59794
2025-05-27 16:53:00.407,59856,10968,7950,30364,59793
2025-05-27 16:53:00.429,59826,10982,7951,30379,59793
2025-05-27 16:53:00.431,59812,10993,7966,30375,59797
2025-05-27 16:53:00.435,59793,10984,7949,30374,59791
2025-05-27 16:53:00.447,59802,10990,7963,30372,59791
2025-05-27 16:53:00.455,59782,10987,7960,30387,59800
2025-05-27 16:53:00.467,59761,11004,7967,30376,59808
2025-05-27 16:53:00.474,59739,11008,7962,30383,59805
2025-05-27 16:53:00.501,59732,10988,7961,30387,59804
2025-05-27 16:53:00.502,59732,10991,7971,30391,59822
2025-05-27 16:53:00.507,59728,10992,7970,30389,59808
2025-05-27 16:53:00.515,59721,11006,7981,30371,59809
2025-05-27 16:53:00.527,59727,10997,7964,30391,59828
2025-05-27 16:53:00.535,59712,10985,7963,30389,59799
2025-05-27 16:53:00.547,59722,10992,7976,30388,59801
2025-05-27 16:53:00.570,59712,11014,7964,30362,59823
2025-05-27 16:53:00.572,59721,10965,7974,30378,59797
2025-05-27 16:53:00.575,59722,11002,7989,30385,59823
2025-05-27 16:53:00.587,59732,11017,7975,30377,59807
2025-05-27 16:53:00.596,59720,11015,7969,30378,59801
2025-05-27 16:53:00.607,59729,11027,7977,30389,59816
2025-05-27 16:53:00.615,59700,11006,7982,30372,59814
2025-05-27 16:53:00.636,59727,11024,7987,30377,59810
2025-05-27 16:53:00.639,59718,11019,7976,30388,59803
2025-05-27 16:53:00.647,59718,11025,7981,30371,59813
2025-05-27 16:53:00.658,59710,10988,7982,30374,59790
2025-05-27 16:53:00.667,59719,11003,7991,30367,59793
2025-05-27 16:53:00.678,59692,11000,8005,30364,59802
2025-05-27 16:53:00.702,59710,11007,7980,30360,59801
2025-05-27 16:53:00.704,59707,11000,7984,30366,59804
2025-05-27 16:53:00.708,59693,11029,7994,30383,59795
2025-05-27 16:53:00.718,59683,10992,7987,30383,59816
2025-05-27 16:53:00.727,59696,11021,7984,30365,59806
2025-05-27 16:53:00.739,59688,11015,7994,30366,59824
2025-05-27 16:53:00.747,59671,11016,7981,30375,59822
2025-05-27 16:53:00.768,59666,10994,7983,30366,59808
2025-05-27 16:53:00.769,59672,11010,7971,30385,59813
2025-05-27 16:53:00.780,59658,11003,7995,30372,59829
2025-05-27 16:53:00.786,59678,11015,7994,30365,59833
2025-05-27 16:53:00.798,59683,10996,7994,30367,59830
2025-05-27 16:53:00.808,59630,11010,7985,30364,59838
2025-05-27 16:53:00.838,59657,10999,7996,30369,59842
2025-05-27 16:53:00.839,59636,11009,8006,30387,59822
2025-05-27 16:53:00.841,59653,10999,8019,30362,59832
2025-05-27 16:53:00.847,59604,10988,7986,30375,59832
2025-05-27 16:53:00.859,59623,10992,8007,30384,59818
2025-05-27 16:53:00.867,59601,11006,7997,30387,59828
2025-05-27 16:53:00.879,59557,11009,7983,30378,59825
2025-05-27 16:53:00.886,59541,10990,8012,30355,59836
2025-05-27 16:53:00.906,59532,11010,8000,30399,59815
2025-05-27 16:53:00.911,59547,11000,7996,30382,59830
2025-05-27 16:53:00.919,59504,10990,7987,30377,59835
2025-05-27 16:53:00.931,59505,10998,7992,30396,59839
2025-05-27 16:53:00.938,59516,11004,8004,30395,59847
2025-05-27 16:53:00.951,59508,10992,8010,30377,59846
2025-05-27 16:53:00.972,59502,10981,8010,30401,59856
2025-05-27 16:53:00.973,59510,11007,8023,30386,59860
2025-05-27 16:53:00.979,59479,11009,8014,30399,59871
2025-05-27 16:53:00.991,59485,11020,8014,30393,59870
2025-05-27 16:53:00.999,59471,11009,8017,30400,59880
2025-05-27 16:53:01.010,59475,11008,8020,30399,59892
2025-05-27 16:53:01.019,59476,11024,8021,30408,59877
2025-05-27 16:53:01.044,59492,11034,8005,30405,59892
2025-05-27 16:53:01.046,59478,11014,8016,30411,59896
2025-05-27 16:53:01.050,59473,11016,8011,30403,59915
2025-05-27 16:53:01.059,59485,11003,8003,30400,59898
2025-05-27 16:53:01.070,59472,11005,8016,30408,59896
2025-05-27 16:53:01.079,59463,11027,8011,30404,59903
2025-05-27 16:53:01.091,59454,11014,8016,30394,59913
2025-05-27 16:53:01.114,59459,11029,8028,30416,59908
2025-05-27 16:53:01.116,59456,11016,8028,30412,59920
2025-05-27 16:53:01.117,59456,11016,8028,30412,59920
2025-05-27 16:53:01.118,59467,11012,8020,30394,59899
2025-05-27 16:53:01.131,59447,11012,8021,30408,59886
2025-05-27 16:53:01.139,59439,11008,8039,30387,59890
2025-05-27 16:53:01.151,59434,11044,8030,30418,59902
2025-05-27 16:53:01.159,59423,11021,8039,30417,59895
2025-05-27 16:53:01.184,59427,11029,8036,30420,59897
2025-05-27 16:53:01.185,59408,11025,8036,30414,59903
2025-05-27 16:53:01.191,59407,11022,8027,30434,59894
2025-05-27 16:53:01.203,59413,11021,8031,30420,59897
2025-05-27 16:53:01.210,59398,11033,8025,30412,59916
2025-05-27 16:53:01.223,59403,11024,8042,30417,59878
2025-05-27 16:53:01.231,59395,11018,8038,30423,59917
2025-05-27 16:53:01.252,59400,11047,8043,30414,59910
2025-05-27 16:53:01.253,59386,11041,8018,30438,59929
2025-05-27 16:53:01.263,59393,11027,8043,30430,59934
2025-05-27 16:53:01.271,59388,11043,8053,30411,59908
2025-05-27 16:53:01.283,59389,11040,8044,30422,59886
2025-05-27 16:53:01.291,59405,11044,8045,30432,59907
2025-05-27 16:53:01.318,59391,11057,8050,30435,59924
2025-05-27 16:53:01.320,59389,11036,8053,30421,59906
2025-05-27 16:53:01.323,59390,11054,8038,30414,59923
2025-05-27 16:53:01.331,59388,11050,8038,30412,59899
2025-05-27 16:53:01.343,59391,11053,8038,30430,59907
2025-05-27 16:53:01.351,59388,11052,8054,30418,59903
2025-05-27 16:53:01.363,59388,11051,8055,30428,59902
2025-05-27 16:53:01.388,59376,11041,8039,30394,59914
2025-05-27 16:53:01.389,59390,11038,8036,30406,59878
2025-05-27 16:53:01.391,59386,11055,8055,30415,59891
2025-05-27 16:53:01.403,59394,11047,8043,30397,59883
2025-05-27 16:53:01.411,59376,11020,8053,30395,59879
2025-05-27 16:53:01.423,59374,11007,8029,30389,59873
2025-05-27 16:53:01.431,59374,11025,8039,30398,59868
2025-05-27 16:53:01.458,59376,11019,8043,30413,59866
2025-05-27 16:53:01.459,59377,11021,8046,30391,59870
2025-05-27 16:53:01.462,59365,11032,8052,30392,59878
2025-05-27 16:53:01.471,59358,11017,8054,30416,59865
2025-05-27 16:53:01.483,59345,11021,8036,30399,59863
2025-05-27 16:53:01.495,59346,11019,8047,30404,59869
2025-05-27 16:53:01.502,59336,11010,8022,30407,59856
2025-05-27 16:53:01.526,59344,11019,8041,30415,59865
2025-05-27 16:53:01.527,59359,11010,8038,30404,59888
2025-05-27 16:53:01.535,59345,11016,8033,30399,59863
2025-05-27 16:53:01.544,59348,11020,8039,30391,59853
2025-05-27 16:53:01.554,59342,11007,8046,30412,59855
2025-05-27 16:53:01.563,59342,11015,8053,30398,59864
2025-05-27 16:53:01.574,59350,11030,8044,30387,59876
2025-05-27 16:53:01.595,59327,11011,8047,30387,59872
2025-05-27 16:53:01.596,59352,11010,8050,30412,59869
2025-05-27 16:53:01.603,59365,11014,8051,30408,59878
2025-05-27 16:53:01.615,59368,11015,8048,30381,59863
2025-05-27 16:53:01.622,59359,11011,8044,30386,59881
2025-05-27 16:53:01.635,59356,11029,8045,30401,59866
2025-05-27 16:53:01.643,59368,11017,8061,30400,59886
2025-05-27 16:53:01.663,59361,11031,8040,30411,59869
2025-05-27 16:53:01.664,59362,11019,8049,30387,59887
2025-05-27 16:53:01.675,59337,11020,8052,30406,59853
2025-05-27 16:53:01.683,59316,11013,8052,30403,59893
2025-05-27 16:53:01.694,59317,11020,8048,30411,59872
2025-05-27 16:53:01.702,59301,11032,8063,30398,59887
2025-05-27 16:53:01.729,59298,11025,8048,30407,59885
2025-05-27 16:53:01.731,59277,11024,8050,30409,59889
2025-05-27 16:53:01.735,59266,11024,8058,30412,59884
2025-05-27 16:53:01.742,59280,11004,8060,30418,59895
2025-05-27 16:53:01.754,59275,11019,8049,30409,59896
2025-05-27 16:53:01.763,59285,11020,8060,30416,59888
2025-05-27 16:53:01.774,59276,11025,8062,30431,59893
2025-05-27 16:53:01.799,59262,11028,8059,30415,59889
2025-05-27 16:53:01.800,59272,11022,8061,30414,59883
2025-05-27 16:53:01.807,59284,11022,8061,30394,59900
2025-05-27 16:53:01.814,59263,11036,8063,30404,59908
2025-05-27 16:53:01.826,59275,11034,8058,30409,59897
2025-05-27 16:53:01.836,59272,11022,8073,30416,59898
2025-05-27 16:53:01.847,59250,11024,8059,30412,59893
2025-05-27 16:53:01.867,59266,11039,8069,30409,59893
2025-05-27 16:53:01.868,59259,11033,8062,30406,59896
2025-05-27 16:53:01.874,59247,11031,8063,30419,59927
2025-05-27 16:53:01.887,59225,11031,8065,30397,59913
2025-05-27 16:53:01.895,59225,11036,8074,30403,59908
2025-05-27 16:53:01.906,59224,11046,8071,30427,59925
2025-05-27 16:53:01.914,59214,11042,8070,30439,59935
2025-05-27 16:53:01.934,59235,11041,8069,30419,59941
2025-05-27 16:53:01.935,59205,11043,8068,30409,59930
2025-05-27 16:53:01.947,59205,11053,8074,30411,59938
2025-05-27 16:53:01.954,59223,11047,8090,30408,59949
2025-05-27 16:53:01.967,59221,11046,8080,30418,59942
2025-05-27 16:53:01.975,59208,11056,8086,30397,59940
2025-05-27 16:53:02.001,59200,11062,8085,30419,59954
2025-05-27 16:53:02.003,59200,11062,8065,30416,59941
2025-05-27 16:53:02.006,59208,11063,8086,30412,59938
2025-05-27 16:53:02.015,59204,11060,8076,30401,59932
2025-05-27 16:53:02.027,59187,11060,8080,30402,59945
2025-05-27 16:53:02.035,59195,11054,8093,30402,59932
2025-05-27 16:53:02.046,59190,11058,8089,30426,59929
2025-05-27 16:53:02.069,59202,11050,8085,30416,59943
2025-05-27 16:53:02.070,59175,11064,8094,30425,59943
2025-05-27 16:53:02.075,59161,11072,8076,30424,59937
2025-05-27 16:53:02.087,59178,11061,8096,30416,59943
2025-05-27 16:53:02.095,59192,11066,8099,30417,59934
2025-05-27 16:53:02.108,59164,11057,8089,30413,59939
2025-05-27 16:53:02.140,59176,11067,8096,30407,59948
2025-05-27 16:53:02.141,59169,11053,8085,30399,59922
2025-05-27 16:53:02.143,59159,11057,8084,30403,59917
2025-05-27 16:53:02.147,59162,11055,8084,30414,59913
2025-05-27 16:53:02.159,59160,11048,8096,30415,59932
2025-05-27 16:53:02.167,59158,11048,8072,30397,59915
2025-05-27 16:53:02.180,59150,11054,8081,30394,59928
2025-05-27 16:53:02.186,59154,11041,8065,30399,59924
2025-05-27 16:53:02.211,59138,11059,8107,30413,59915
2025-05-27 16:53:02.213,59156,11043,8082,30401,59924
2025-05-27 16:53:02.219,59125,11043,8086,30406,59934
2025-05-27 16:53:02.226,59138,11047,8077,30403,59925
2025-05-27 16:53:02.238,59094,11059,8067,30396,59917
2025-05-27 16:53:02.247,59115,11035,8070,30403,59932
2025-05-27 16:53:02.259,59096,11042,8074,30388,59922
2025-05-27 16:53:02.280,59073,11036,8067,30416,59930
2025-05-27 16:53:02.281,59081,11036,8074,30415,59919
2025-05-27 16:53:02.287,59039,11028,8087,30408,59926
2025-05-27 16:53:02.298,59070,11021,8090,30406,59927
2025-05-27 16:53:02.307,59043,11028,8074,30389,59934
2025-05-27 16:53:02.318,59033,11028,8074,30418,59934
2025-05-27 16:53:02.327,59014,11031,8083,30411,59948
2025-05-27 16:53:02.347,59014,11039,8072,30422,59944
2025-05-27 16:53:02.349,59023,11027,8070,30423,59949
2025-05-27 16:53:02.359,59025,11027,8073,30410,59942
2025-05-27 16:53:02.367,59006,11031,8074,30405,59940
2025-05-27 16:53:02.379,58980,11035,8068,30425,59952
2025-05-27 16:53:02.391,59005,11027,8073,30406,59936
2025-05-27 16:53:02.416,59000,11007,8072,30425,59941
2025-05-27 16:53:02.417,58970,10995,8087,30412,59959
2025-05-27 16:53:02.419,58973,11031,8068,30418,59941
2025-05-27 16:53:02.431,58972,11013,8077,30423,59932
2025-05-27 16:53:02.438,58958,11013,8060,30413,59954
2025-05-27 16:53:02.451,58960,11031,8069,30419,59960
2025-05-27 16:53:02.458,58977,11024,8076,30415,59948
2025-05-27 16:53:02.483,58957,11017,8059,30411,59919
2025-05-27 16:53:02.485,58939,11008,8074,30414,59947
2025-05-27 16:53:02.490,58944,11030,8079,30412,59939
2025-05-27 16:53:02.498,58935,11032,8068,30394,59952
2025-05-27 16:53:02.511,58925,11036,8076,30413,59931
2025-05-27 16:53:02.523,58937,11004,8086,30412,59936
2025-05-27 16:53:02.524,58937,11004,8086,30412,59936
2025-05-27 16:53:02.530,58921,11025,8070,30398,59939
2025-05-27 16:53:02.551,58920,11000,8068,30406,59943
2025-05-27 16:53:02.553,58911,11037,8079,30408,59931
2025-05-27 16:53:02.558,58938,11011,8077,30402,59947
2025-05-27 16:53:02.570,58924,11031,8077,30413,59956
2025-05-27 16:53:02.579,58913,10999,8076,30404,59927
2025-05-27 16:53:02.590,58924,11036,8082,30384,59937
2025-05-27 16:53:02.598,58932,11024,8072,30392,59945
2025-05-27 16:53:02.618,58921,11019,8070,30414,59928
2025-05-27 16:53:02.620,58922,11028,8048,30418,59942
2025-05-27 16:53:02.631,58924,11020,8080,30423,59927
2025-05-27 16:53:02.638,58925,11028,8088,30386,59925
2025-05-27 16:53:02.650,58931,11013,8087,30394,59930
2025-05-27 16:53:02.659,58911,11022,8071,30381,59932
2025-05-27 16:53:02.688,58918,11017,8077,30390,59922
2025-05-27 16:53:02.689,58906,11025,8074,30412,59912
2025-05-27 16:53:02.691,58920,11028,8086,30409,59920
2025-05-27 16:53:02.703,58908,11022,8097,30391,59925
2025-05-27 16:53:02.710,58927,11031,8091,30396,59910
2025-05-27 16:53:02.722,58926,11030,8069,30401,59916
2025-05-27 16:53:02.731,58923,11028,8076,30393,59928
2025-05-27 16:53:02.757,58936,11026,8102,30386,59919
2025-05-27 16:53:02.759,58938,11028,8066,30393,59891
2025-05-27 16:53:02.762,58956,11038,8100,30390,59904
2025-05-27 16:53:02.770,58943,11040,8057,30393,59909
2025-05-27 16:53:02.783,58950,11041,8104,30399,59907
2025-05-27 16:53:02.791,58949,11044,8076,30380,59875
2025-05-27 16:53:02.802,58952,11036,8092,30396,59898
2025-05-27 16:53:02.824,58954,11041,8108,30387,59890
2025-05-27 16:53:02.826,58960,11043,8080,30380,59906
2025-05-27 16:53:02.830,58949,11054,8115,30406,59908
2025-05-27 16:53:02.842,58950,11056,8072,30396,59901
2025-05-27 16:53:02.851,58960,11049,8119,30400,59912
2025-05-27 16:53:02.862,58968,11045,8088,30397,59912
2025-05-27 16:53:02.871,58965,11062,8094,30405,59911
2025-05-27 16:53:02.892,58970,11061,8105,30387,59921
2025-05-27 16:53:02.893,58967,11073,8106,30392,59915
2025-05-27 16:53:02.903,58964,11057,8119,30377,59928
2025-05-27 16:53:02.911,58955,11062,8127,30385,59938
2025-05-27 16:53:02.922,58945,11059,8123,30377,59949
2025-05-27 16:53:02.931,58956,11053,8106,30388,59927
2025-05-27 16:53:02.958,58943,11074,8120,30398,59926
2025-05-27 16:53:02.960,58937,11072,8114,30362,59897
2025-05-27 16:53:02.962,58927,11049,8108,30385,59911
2025-05-27 16:53:02.975,58922,11057,8108,30366,59917
2025-05-27 16:53:02.982,58925,11055,8107,30363,59889
2025-05-27 16:53:02.994,58922,11054,8107,30382,59882
2025-05-27 16:53:03.003,58917,11050,8091,30367,59877
2025-05-27 16:53:03.026,58917,11036,8083,30373,59852
2025-05-27 16:53:03.028,58918,11034,8096,30342,59847
2025-05-27 16:53:03.034,58920,11034,8084,30333,59840
2025-05-27 16:53:03.042,58920,11034,8086,30321,59848
2025-05-27 16:53:03.054,58922,11036,8096,30321,59832
2025-05-27 16:53:03.063,58914,11028,8081,30328,59830
2025-05-27 16:53:03.074,58919,11016,8081,30325,59809
2025-05-27 16:53:03.098,58922,11024,8077,30337,59811
2025-05-27 16:53:03.100,58919,11011,8072,30294,59826
2025-05-27 16:53:03.102,58912,11013,8093,30326,59798
2025-05-27 16:53:03.115,58936,11016,8104,30342,59789
2025-05-27 16:53:03.122,58936,11008,8075,30320,59786
2025-05-27 16:53:03.134,58947,11014,8091,30333,59789
2025-05-27 16:53:03.142,58950,11018,8071,30334,59793
2025-05-27 16:53:03.167,58956,11025,8094,30328,59783
2025-05-27 16:53:03.169,58969,10996,8081,30324,59787
2025-05-27 16:53:03.174,58967,11009,8086,30318,59800
2025-05-27 16:53:03.183,58985,11015,8096,30287,59773
2025-05-27 16:53:03.194,58989,11018,8067,30323,59794
2025-05-27 16:53:03.202,59005,11013,8088,30313,59792
2025-05-27 16:53:03.215,59008,11020,8096,30296,59792
2025-05-27 16:53:03.236,59020,11016,8087,30319,59767
2025-05-27 16:53:03.238,59038,11021,8077,30272,59767
2025-05-27 16:53:03.243,59026,11015,8080,30303,59791
2025-05-27 16:53:03.254,59030,11019,8089,30293,59774
2025-05-27 16:53:03.266,59042,11030,8099,30296,59761
2025-05-27 16:53:03.274,59031,11027,8098,30300,59769
2025-05-27 16:53:03.304,59046,11021,8080,30277,59782
2025-05-27 16:53:03.306,59059,11023,8080,30304,59782
2025-05-27 16:53:03.307,59061,11022,8080,30289,59764
2025-05-27 16:53:03.314,59062,11013,8083,30301,59758
2025-05-27 16:53:03.327,59060,11019,8085,30280,59758
2025-05-27 16:53:03.335,59070,11006,8085,30320,59744
2025-05-27 16:53:03.346,59073,11012,8089,30273,59735
2025-05-27 16:53:03.371,59059,11022,8083,30305,59749
2025-05-27 16:53:03.373,59081,11017,8086,30265,59741
2025-05-27 16:53:03.374,59069,11017,8087,30306,59730
2025-05-27 16:53:03.387,59050,11013,8096,30301,59749
2025-05-27 16:53:03.394,59061,11008,8089,30270,59750
2025-05-27 16:53:03.406,59045,11014,8097,30309,59728
2025-05-27 16:53:03.414,59048,10999,8083,30267,59728
2025-05-27 16:53:03.441,59024,11014,8097,30298,59732
2025-05-27 16:53:03.442,59022,11010,8097,30270,59759
2025-05-27 16:53:03.447,59003,11020,8094,30277,59719
2025-05-27 16:53:03.454,58989,11009,8095,30277,59745
2025-05-27 16:53:03.467,58991,11011,8094,30282,59737
2025-05-27 16:53:03.474,58986,11024,8110,30268,59734
2025-05-27 16:53:03.487,58991,11015,8096,30289,59711
2025-05-27 16:53:03.510,58989,11019,8090,30272,59731
2025-05-27 16:53:03.511,58990,11034,8096,30265,59738
2025-05-27 16:53:03.514,58991,11023,8088,30275,59723
2025-05-27 16:53:03.527,58980,11025,8091,30259,59729
2025-05-27 16:53:03.534,58984,11024,8095,30275,59721
2025-05-27 16:53:03.547,58994,11012,8093,30265,59707
2025-05-27 16:53:03.555,58997,11014,8098,30255,59697
2025-05-27 16:53:03.578,58999,11018,8101,30262,59716
2025-05-27 16:53:03.580,58992,11024,8104,30260,59699
2025-05-27 16:53:03.587,58981,11040,8104,30258,59710
2025-05-27 16:53:03.598,58995,11026,8108,30266,59694
2025-05-27 16:53:03.606,59002,11026,8113,30240,59686
2025-05-27 16:53:03.618,59003,11028,8102,30258,59700
2025-05-27 16:53:03.627,58998,11033,8108,30250,59666
2025-05-27 16:53:03.648,59024,11032,8109,30253,59693
2025-05-27 16:53:03.649,58999,11037,8101,30251,59671
2025-05-27 16:53:03.658,59004,11031,8103,30248,59710
2025-05-27 16:53:03.666,59007,11023,8109,30251,59692
2025-05-27 16:53:03.678,58997,11034,8114,30241,59674
2025-05-27 16:53:03.687,59005,11036,8110,30240,59664
2025-05-27 16:53:03.717,59008,11033,8117,30229,59659
2025-05-27 16:53:03.718,59003,11038,8123,30228,59704
2025-05-27 16:53:03.720,59004,11036,8111,30237,59649
2025-05-27 16:53:03.730,59005,11036,8121,30248,59662
2025-05-27 16:53:03.731,59005,11036,8121,30248,59662
2025-05-27 16:53:03.738,58999,11044,8128,30231,59659
2025-05-27 16:53:03.746,59009,11043,8114,30234,59665
2025-05-27 16:53:03.758,58995,11042,8118,30226,59661
2025-05-27 16:53:03.785,59008,11056,8121,30229,59668
2025-05-27 16:53:03.787,58998,11042,8111,30220,59668
2025-05-27 16:53:03.789,59010,11048,8119,30230,59679
2025-05-27 16:53:03.798,59000,11056,8119,30216,59645
2025-05-27 16:53:03.806,59001,11054,8126,30224,59669
2025-05-27 16:53:03.819,59015,11044,8134,30236,59668
2025-05-27 16:53:03.826,59017,11058,8123,30212,59650
2025-05-27 16:53:03.855,59016,11063,8135,30222,59654
2025-05-27 16:53:03.857,59009,11056,8128,30225,59628
2025-05-27 16:53:03.858,59011,11052,8117,30216,59636
2025-05-27 16:53:03.870,59012,11051,8122,30216,59636
2025-05-27 16:53:03.879,59012,11038,8135,30233,59641
2025-05-27 16:53:03.890,59015,11039,8128,30182,59613
2025-05-27 16:53:03.898,59011,11035,8127,30211,59614
2025-05-27 16:53:03.923,59023,11030,8116,30192,59603
2025-05-27 16:53:03.924,59004,11035,8114,30199,59612
2025-05-27 16:53:03.930,59016,11026,8119,30176,59609
2025-05-27 16:53:03.938,59001,11026,8118,30214,59607
2025-05-27 16:53:03.950,58995,11034,8110,30204,59609
2025-05-27 16:53:03.958,59010,11033,8107,30185,59604
2025-05-27 16:53:03.970,58993,11032,8104,30184,59597
2025-05-27 16:53:03.991,59014,11031,8112,30189,59602
2025-05-27 16:53:03.993,59015,11035,8113,30195,59609
2025-05-27 16:53:03.998,59014,11026,8102,30198,59610
2025-05-27 16:53:04.010,59007,11020,8112,30182,59598
2025-05-27 16:53:04.019,58990,11017,8102,30178,59625
2025-05-27 16:53:04.029,58984,11025,8110,30200,59596
2025-05-27 16:53:04.039,58978,11018,8107,30194,59605
2025-05-27 16:53:04.060,58988,11017,8109,30178,59590
2025-05-27 16:53:04.062,58963,11019,8106,30186,59594
2025-05-27 16:53:04.070,58960,11024,8098,30177,59597
2025-05-27 16:53:04.078,58972,11018,8112,30181,59601
2025-05-27 16:53:04.090,58958,11025,8094,30197,59588
2025-05-27 16:53:04.098,58940,11009,8106,30185,59599
2025-05-27 16:53:04.130,58942,11008,8109,30185,59599
2025-05-27 16:53:04.132,58938,11015,8115,30183,59589
2025-05-27 16:53:04.133,58940,11015,8106,30186,59579
2025-05-27 16:53:04.142,58937,11008,8091,30207,59586
2025-05-27 16:53:04.150,58933,11030,8101,30186,59582
2025-05-27 16:53:04.162,58931,11000,8096,30170,59587
2025-05-27 16:53:04.169,58931,11015,8099,30173,59608
2025-05-27 16:53:04.199,58922,11018,8101,30168,59567
2025-05-27 16:53:04.201,58950,11008,8100,30168,59578
2025-05-27 16:53:04.202,58932,11003,8088,30171,59593
2025-05-27 16:53:04.211,58951,11005,8105,30165,59579
2025-05-27 16:53:04.223,58955,11016,8090,30181,59594
2025-05-27 16:53:04.231,58938,11006,8098,30165,59587
2025-05-27 16:53:04.242,58971,11011,8084,30168,59572
2025-05-27 16:53:04.266,58976,11017,8104,30165,59591
2025-05-27 16:53:04.267,58952,11012,8103,30168,59596
2025-05-27 16:53:04.270,58952,11003,8115,30171,59569
2025-05-27 16:53:04.283,58940,11010,8101,30168,59574
2025-05-27 16:53:04.290,58942,11024,8114,30172,59566
2025-05-27 16:53:04.302,58931,11014,8101,30156,59579
2025-05-27 16:53:04.311,58923,11020,8103,30168,59591
2025-05-27 16:53:04.333,58914,11006,8096,30169,59586
2025-05-27 16:53:04.335,58917,11005,8104,30170,59580
2025-05-27 16:53:04.343,58908,11030,8109,30157,59573
2025-05-27 16:53:04.350,58890,11027,8098,30164,59561
2025-05-27 16:53:04.362,58900,11020,8109,30165,59554
2025-05-27 16:53:04.370,58882,11026,8105,30153,59565
2025-05-27 16:53:04.382,58891,11011,8107,30153,59572
2025-05-27 16:53:04.404,58881,11015,8107,30173,59573
2025-05-27 16:53:04.406,58903,11011,8112,30166,59594
2025-05-27 16:53:04.410,58872,11040,8095,30158,59586
2025-05-27 16:53:04.422,58881,11018,8101,30163,59577
2025-05-27 16:53:04.431,58893,11027,8116,30167,59596
2025-05-27 16:53:04.442,58898,11029,8113,30155,59590
2025-05-27 16:53:04.451,58901,11027,8132,30154,59588
2025-05-27 16:53:04.473,58910,11028,8111,30167,59596
2025-05-27 16:53:04.475,58904,11037,8106,30151,59583
2025-05-27 16:53:04.482,58882,11040,8102,30160,59579
2025-05-27 16:53:04.495,58920,11033,8110,30148,59583
2025-05-27 16:53:04.502,58933,11018,8111,30151,59571
2025-05-27 16:53:04.514,58915,11040,8105,30139,59577
2025-05-27 16:53:04.542,58917,11035,8123,30157,59591
2025-05-27 16:53:04.544,58924,11020,8120,30154,59585
2025-05-27 16:53:04.545,58922,11044,8126,30152,59573
2025-05-27 16:53:04.555,58913,11032,8120,30146,59583
2025-05-27 16:53:04.562,58918,11043,8123,30167,59585
2025-05-27 16:53:04.575,58926,11042,8121,30147,59588
2025-05-27 16:53:04.581,58929,11056,8131,30158,59583
2025-05-27 16:53:04.609,58935,11048,8131,30154,59582
2025-05-27 16:53:04.611,58936,11047,8128,30161,59584
2025-05-27 16:53:04.614,58920,11050,8137,30161,59594
2025-05-27 16:53:04.622,58927,11049,8120,30147,59576
2025-05-27 16:53:04.634,58926,11057,8128,30143,59577
2025-05-27 16:53:04.642,58916,11054,8133,30156,59565
2025-05-27 16:53:04.654,58902,11038,8130,30144,59557
2025-05-27 16:53:04.678,58876,11053,8119,30149,59564
2025-05-27 16:53:04.679,58876,11033,8130,30135,59558
2025-05-27 16:53:04.682,58876,11030,8125,30140,59551
2025-05-27 16:53:04.693,58877,11050,8132,30147,59557
2025-05-27 16:53:04.703,58858,11029,8115,30137,59558
2025-05-27 16:53:04.714,58848,11030,8127,30140,59549
2025-05-27 16:53:04.724,58836,11025,8119,30134,59564
2025-05-27 16:53:04.745,58846,11036,8108,30138,59538
2025-05-27 16:53:04.747,58823,11018,8122,30130,59557
2025-05-27 16:53:04.755,58821,11015,8117,30144,59556
2025-05-27 16:53:04.766,58822,11024,8121,30129,59556
2025-05-27 16:53:04.774,58803,11027,8120,30137,59553
2025-05-27 16:53:04.786,58815,11018,8107,30132,59550
2025-05-27 16:53:04.794,58824,11032,8103,30137,59561
2025-05-27 16:53:04.814,58826,11031,8108,30135,59563
2025-05-27 16:53:04.815,58818,11024,8097,30136,59566
2025-05-27 16:53:04.826,58820,11015,8115,30134,59554
2025-05-27 16:53:04.834,58811,11008,8104,30125,59560
2025-05-27 16:53:04.846,58817,11008,8118,30150,59550
2025-05-27 16:53:04.854,58837,11027,8097,30144,59546
2025-05-27 16:53:04.881,58817,11044,8112,30129,59552
2025-05-27 16:53:04.883,58810,11010,8105,30131,59536
2025-05-27 16:53:04.886,58793,11013,8123,30131,59544
2025-05-27 16:53:04.894,58817,11016,8107,30143,59561
2025-05-27 16:53:04.906,58793,11024,8105,30114,59548
2025-05-27 16:53:04.914,58797,11023,8110,30113,59564
2025-05-27 16:53:04.926,58789,11030,8099,30130,59554
2025-05-27 16:53:04.949,58784,11041,8100,30130,59554
2025-05-27 16:53:04.951,58784,11041,8100,30130,59554
2025-05-27 16:53:04.952,58752,11017,8099,30146,59552
2025-05-27 16:53:04.954,58767,11027,8114,30130,59550
2025-05-27 16:53:04.967,58744,11038,8099,30115,59556
2025-05-27 16:53:04.974,58727,11033,8107,30129,59574
2025-05-27 16:53:04.986,58732,11014,8113,30133,59562
2025-05-27 16:53:04.995,58708,11027,8104,30151,59574
2025-05-27 16:53:05.017,58719,11028,8100,30130,59559
2025-05-27 16:53:05.018,58709,11025,8111,30135,59574
2025-05-27 16:53:05.026,58706,11020,8103,30143,59598
2025-05-27 16:53:05.038,58717,11033,8103,30133,59596
2025-05-27 16:53:05.046,58707,11024,8102,30137,59583
2025-05-27 16:53:05.058,58706,11016,8106,30142,59590
2025-05-27 16:53:05.066,58707,11033,8108,30139,59596
2025-05-27 16:53:05.087,58716,11023,8094,30133,59585
2025-05-27 16:53:05.088,58708,11028,8106,30136,59579
2025-05-27 16:53:05.098,58711,11036,8097,30148,59580
2025-05-27 16:53:05.106,58706,11031,8109,30123,59582
2025-05-27 16:53:05.118,58711,11017,8113,30122,59586
2025-05-27 16:53:05.125,58714,11031,8116,30144,59587
2025-05-27 16:53:05.155,58721,11026,8108,30153,59571
2025-05-27 16:53:05.156,58735,11026,8114,30129,59578
2025-05-27 16:53:05.158,58734,11026,8117,30125,59572
2025-05-27 16:53:05.165,58741,11033,8119,30116,59572
2025-05-27 16:53:05.178,58739,11028,8113,30113,59577
2025-05-27 16:53:05.186,58741,11031,8107,30121,59584
2025-05-27 16:53:05.197,58741,11037,8112,30125,59581
2025-05-27 16:53:05.222,58742,11047,8120,30137,59567
2025-05-27 16:53:05.224,58764,11042,8121,30138,59550
2025-05-27 16:53:05.225,58737,11051,8122,30131,59579
2025-05-27 16:53:05.238,58720,11042,8121,30129,59590
2025-05-27 16:53:05.246,58708,11049,8119,30128,59571
2025-05-27 16:53:05.257,58735,11060,8123,30132,59577
2025-05-27 16:53:05.265,58707,11048,8106,30134,59566
2025-05-27 16:53:05.291,58712,11048,8126,30124,59596
2025-05-27 16:53:05.292,58716,11053,8116,30118,59587
2025-05-27 16:53:05.299,58704,11049,8124,30125,59582
2025-05-27 16:53:05.306,58724,11050,8121,30119,59594
2025-05-27 16:53:05.318,58722,11055,8119,30130,59574
2025-05-27 16:53:05.330,58692,11052,8136,30109,59573
2025-05-27 16:53:05.338,58686,11050,8136,30120,59580
2025-05-27 16:53:05.359,58671,11062,8127,30118,59579
2025-05-27 16:53:05.361,58684,11043,8141,30125,59553
2025-05-27 16:53:05.370,58666,11061,8113,30091,59573
2025-05-27 16:53:05.378,58660,11051,8118,30112,59568
2025-05-27 16:53:05.390,58656,11051,8131,30121,59556
2025-05-27 16:53:05.398,58648,11048,8129,30138,59557
2025-05-27 16:53:05.427,58650,11046,8133,30122,59555
2025-05-27 16:53:05.429,58670,11039,8122,30107,59547
2025-05-27 16:53:05.430,58647,11047,8116,30093,59553
2025-05-27 16:53:05.438,58658,11026,8128,30095,59549
2025-05-27 16:53:05.450,58661,11039,8112,30099,59541
2025-05-27 16:53:05.458,58668,11039,8113,30113,59540
2025-05-27 16:53:05.470,58684,11038,8120,30089,59550
2025-05-27 16:53:05.497,58684,11033,8118,30088,59545
2025-05-27 16:53:05.498,58674,11029,8117,30095,59544
2025-05-27 16:53:05.500,58668,11035,8111,30085,59544
2025-05-27 16:53:05.510,58680,11038,8106,30103,59546
2025-05-27 16:53:05.518,58667,11027,8116,30112,59554
2025-05-27 16:53:05.530,58659,11018,8113,30105,59547
2025-05-27 16:53:05.538,58641,11020,8108,30094,59549
2025-05-27 16:53:05.565,58652,11019,8102,30103,59554
2025-05-27 16:53:05.567,58647,11023,8090,30087,59544
2025-05-27 16:53:05.570,58662,11022,8113,30124,59532
2025-05-27 16:53:05.577,58633,11017,8110,30085,59530
2025-05-27 16:53:05.590,58636,11035,8110,30110,59534
2025-05-27 16:53:05.598,58624,11011,8105,30088,59536
2025-05-27 16:53:05.610,58623,11024,8104,30087,59545
2025-05-27 16:53:05.633,58626,11008,8098,30101,59540
2025-05-27 16:53:05.634,58622,11017,8094,30093,59528
2025-05-27 16:53:05.642,58613,11013,8099,30076,59541
2025-05-27 16:53:05.650,58645,11011,8086,30085,59523
2025-05-27 16:53:05.662,58623,11005,8096,30081,59525
2025-05-27 16:53:05.670,58617,11015,8102,30085,59514
2025-05-27 16:53:05.682,58622,11018,8103,30078,59530
2025-05-27 16:53:05.702,58617,11017,8090,30095,59529
2025-05-27 16:53:05.703,58599,11010,8101,30086,59539
2025-05-27 16:53:05.709,58627,11004,8108,30098,59517
2025-05-27 16:53:05.722,58620,10997,8107,30082,59532
2025-05-27 16:53:05.730,58626,11011,8105,30076,59532
2025-05-27 16:53:05.742,58623,11021,8114,30083,59536
2025-05-27 16:53:05.749,58607,11010,8102,30098,59535
2025-05-27 16:53:05.770,58620,11025,8106,30086,59533
2025-05-27 16:53:05.772,58632,11008,8116,30067,59551
2025-05-27 16:53:05.783,58625,11017,8105,30069,59536
2025-05-27 16:53:05.791,58636,11008,8099,30084,59531
2025-05-27 16:53:05.803,58615,11024,8107,30077,59547
2025-05-27 16:53:05.810,58657,11014,8087,30061,59534
2025-05-27 16:53:05.840,58634,11022,8102,30078,59547
2025-05-27 16:53:05.841,58644,11027,8104,30085,59559
2025-05-27 16:53:05.843,58658,11023,8108,30077,59524
2025-05-27 16:53:05.850,58641,11018,8112,30086,59544
2025-05-27 16:53:05.862,58654,11036,8103,30080,59552
2025-05-27 16:53:05.870,58674,11036,8092,30073,59541
2025-05-27 16:53:05.881,58644,11021,8112,30090,59541
2025-05-27 16:53:05.908,58671,11033,8105,30081,59544
2025-05-27 16:53:05.910,58682,11035,8102,30091,59535
2025-05-27 16:53:05.912,58654,11023,8108,30076,59536
2025-05-27 16:53:05.922,58657,11018,8124,30081,59533
2025-05-27 16:53:05.935,58660,11012,8110,30097,59520
2025-05-27 16:53:05.942,58648,11020,8101,30080,59512
2025-05-27 16:53:05.954,58636,11031,8112,30082,59522
2025-05-27 16:53:05.977,58631,11024,8105,30075,59512
2025-05-27 16:53:05.978,58649,11028,8118,30068,59515
2025-05-27 16:53:05.982,58635,11042,8119,30072,59508
2025-05-27 16:53:05.994,58642,11029,8110,30074,59527
2025-05-27 16:53:06.002,58660,11042,8121,30066,59498
2025-05-27 16:53:06.014,58656,11033,8109,30063,59502
2025-05-27 16:53:06.024,58658,11047,8105,30060,59488
2025-05-27 16:53:06.044,58654,11048,8118,30054,59516
2025-05-27 16:53:06.046,58653,11031,8123,30060,59519
2025-05-27 16:53:06.055,58645,11057,8111,30061,59528
2025-05-27 16:53:06.062,58650,11051,8120,30052,59540
2025-05-27 16:53:06.074,58642,11049,8121,30053,59521
2025-05-27 16:53:06.082,58653,11052,8129,30079,59516
2025-05-27 16:53:06.114,58645,11057,8133,30055,59502
2025-05-27 16:53:06.116,58640,11048,8125,30053,59515
2025-05-27 16:53:06.117,58651,11054,8118,30048,59514
2025-05-27 16:53:06.122,58659,11056,8132,30065,59520
2025-05-27 16:53:06.135,58638,11054,8136,30059,59519
2025-05-27 16:53:06.146,58646,11039,8114,30068,59490
2025-05-27 16:53:06.147,58646,11039,8114,30068,59490
2025-05-27 16:53:06.153,58632,11026,8109,30041,59486
2025-05-27 16:53:06.161,58635,11029,8130,30035,59490
2025-05-27 16:53:06.186,58634,11021,8105,30051,59506
2025-05-27 16:53:06.187,58643,11030,8123,30052,59482
2025-05-27 16:53:06.194,58627,11031,8108,30051,59491
2025-05-27 16:53:06.202,58640,11013,8121,30057,59492
2025-05-27 16:53:06.215,58637,11024,8107,30049,59483
2025-05-27 16:53:06.226,58642,11018,8107,30045,59493
2025-05-27 16:53:06.233,58629,11018,8104,30057,59504
2025-05-27 16:53:06.257,58649,11009,8104,30053,59482
2025-05-27 16:53:06.259,58627,11009,8093,30050,59505
2025-05-27 16:53:06.266,58632,11007,8099,30032,59488
2025-05-27 16:53:06.274,58627,11008,8096,30039,59476
2025-05-27 16:53:06.286,58641,10998,8086,30027,59491
2025-05-27 16:53:06.294,58656,11023,8113,30051,59483
2025-05-27 16:53:06.305,58657,11014,8083,30038,59493
2025-05-27 16:53:06.330,58638,11007,8094,30040,59490
2025-05-27 16:53:06.331,58656,10993,8076,30041,59498
2025-05-27 16:53:06.334,58641,11006,8093,30032,59492
2025-05-27 16:53:06.345,58646,10991,8092,30030,59479
2025-05-27 16:53:06.354,58647,11014,8095,30037,59477
2025-05-27 16:53:06.365,58642,10999,8093,30013,59482
2025-05-27 16:53:06.374,58638,11008,8095,30035,59486
2025-05-27 16:53:06.397,58640,11001,8099,30033,59480
2025-05-27 16:53:06.399,58647,10993,8084,30019,59479
2025-05-27 16:53:06.406,58647,10998,8082,30032,59479
2025-05-27 16:53:06.414,58660,10995,8099,30025,59459
2025-05-27 16:53:06.427,58656,10998,8096,30035,59467
2025-05-27 16:53:06.434,58640,10994,8100,30028,59485
2025-05-27 16:53:06.445,58651,10997,8107,30023,59483
2025-05-27 16:53:06.468,58671,11002,8102,30017,59470
2025-05-27 16:53:06.469,58673,11002,8099,30022,59479
2025-05-27 16:53:06.474,58679,10999,8079,30024,59476
2025-05-27 16:53:06.485,58668,10992,8074,30016,59458
2025-05-27 16:53:06.494,58682,10983,8086,30019,59471
2025-05-27 16:53:06.506,58688,10990,8093,30024,59481
2025-05-27 16:53:06.536,58691,10994,8088,30034,59482
2025-05-27 16:53:06.538,58687,10990,8082,30031,59474
2025-05-27 16:53:06.539,58679,10999,8085,30009,59462
2025-05-27 16:53:06.547,58680,11005,8094,30016,59467
2025-05-27 16:53:06.558,58660,10997,8097,30012,59480
2025-05-27 16:53:06.566,58651,10997,8106,30010,59459
2025-05-27 16:53:06.578,58641,10998,8086,30013,59467
2025-05-27 16:53:06.585,58639,11006,8095,30004,59456
2025-05-27 16:53:06.606,58636,10986,8084,30032,59467
2025-05-27 16:53:06.608,58622,10986,8087,30029,59452
2025-05-27 16:53:06.618,58614,10980,8079,30026,59458
2025-05-27 16:53:06.626,58626,10982,8092,30019,59446
2025-05-27 16:53:06.638,58617,10982,8093,30016,59465
2025-05-27 16:53:06.646,58606,10987,8076,30022,59443
2025-05-27 16:53:06.674,58598,10965,8101,30005,59452
2025-05-27 16:53:06.676,58599,10979,8083,30039,59444
2025-05-27 16:53:06.678,58612,10981,8095,30003,59457
2025-05-27 16:53:06.686,58612,10981,8087,30014,59443
2025-05-27 16:53:06.698,58601,10973,8088,29991,59444
2025-05-27 16:53:06.706,58628,10965,8098,29987,59453
2025-05-27 16:53:06.718,58615,10978,8102,29999,59439
2025-05-27 16:53:06.741,58647,11007,8100,30001,59438
2025-05-27 16:53:06.742,58642,10994,8103,30012,59436
2025-05-27 16:53:06.746,58642,10992,8097,30003,59457
2025-05-27 16:53:06.759,58638,10986,8098,30001,59435
2025-05-27 16:53:06.767,58638,10979,8097,29995,59429
2025-05-27 16:53:06.778,58649,10985,8108,30004,59435
2025-05-27 16:53:06.787,58644,10980,8104,30002,59451
2025-05-27 16:53:06.812,58616,10994,8103,29996,59422
2025-05-27 16:53:06.814,58638,10996,8093,29998,59444
2025-05-27 16:53:06.817,58622,10989,8101,30000,59416
2025-05-27 16:53:06.831,58629,10996,8091,30005,59434
2025-05-27 16:53:06.839,58621,10978,8085,29988,59404
2025-05-27 16:53:06.850,58619,10982,8098,29982,59409
2025-05-27 16:53:06.858,58629,10990,8107,29987,59424
2025-05-27 16:53:06.888,58624,10992,8095,29974,59420
2025-05-27 16:53:06.890,58634,10973,8094,29994,59393
2025-05-27 16:53:06.892,58615,10991,8088,29980,59415
2025-05-27 16:53:06.898,58626,10986,8102,29975,59397
2025-05-27 16:53:06.910,58621,10975,8081,29961,59416
2025-05-27 16:53:06.918,58605,10962,8089,29982,59399
2025-05-27 16:53:06.929,58584,10947,8081,29974,59415
2025-05-27 16:53:06.937,58605,10978,8082,29979,59401
2025-05-27 16:53:06.958,58600,10953,8093,29969,59411
2025-05-27 16:53:06.960,58594,10957,8074,29973,59411
2025-05-27 16:53:06.970,58578,10947,8078,29964,59391
2025-05-27 16:53:06.978,58586,10944,8077,29961,59392
2025-05-27 16:53:06.990,58606,10950,8063,29954,59391
2025-05-27 16:53:06.997,58587,10948,8082,29967,59405
2025-05-27 16:53:07.026,58621,10944,8071,29976,59424
2025-05-27 16:53:07.027,58606,10938,8064,29969,59389
2025-05-27 16:53:07.029,58611,10944,8065,29975,59382
2025-05-27 16:53:07.038,58609,10952,8067,29970,59397
2025-05-27 16:53:07.049,58609,10938,8058,29966,59396
2025-05-27 16:53:07.058,58606,10932,8066,29967,59388
2025-05-27 16:53:07.070,58607,10944,8069,29965,59386
2025-05-27 16:53:07.094,58614,10948,8069,29964,59390
2025-05-27 16:53:07.096,58618,10935,8056,29949,59391
2025-05-27 16:53:07.098,58598,10931,8053,29967,59379
2025-05-27 16:53:07.109,58619,10937,8073,29955,59391
2025-05-27 16:53:07.122,58597,10926,8061,29977,59374
2025-05-27 16:53:07.130,58614,10937,8053,29964,59399
2025-05-27 16:53:07.142,58598,10936,8061,29967,59376
2025-05-27 16:53:07.163,58604,10926,8060,29957,59381
2025-05-27 16:53:07.165,58592,10928,8076,29946,59383
2025-05-27 16:53:07.170,58596,10922,8055,29964,59376
2025-05-27 16:53:07.182,58594,10924,8063,29965,59363
2025-05-27 16:53:07.190,58579,10933,8050,29964,59383
2025-05-27 16:53:07.202,58581,10924,8058,29959,59375
2025-05-27 16:53:07.210,58557,10909,8068,29951,59374
2025-05-27 16:53:07.234,58584,10923,8068,29964,59372
2025-05-27 16:53:07.236,58560,10917,8059,29944,59361
2025-05-27 16:53:07.242,58568,10907,8056,29943,59365
2025-05-27 16:53:07.250,58553,10915,8044,29959,59355
2025-05-27 16:53:07.261,58548,10918,8047,29949,59371
2025-05-27 16:53:07.269,58559,10916,8052,29949,59379
2025-05-27 16:53:07.281,58550,10909,8054,29950,59376
2025-05-27 16:53:07.303,58552,10910,8035,29962,59362
2025-05-27 16:53:07.305,58539,10918,8063,29950,59390
2025-05-27 16:53:07.310,58543,10906,8051,29946,59361
2025-05-27 16:53:07.321,58554,10915,8054,29955,59376
2025-05-27 16:53:07.329,58554,10918,8057,29949,59375
2025-05-27 16:53:07.342,58555,10919,8061,29947,59364
2025-05-27 16:53:07.373,58547,10908,8062,29937,59379
2025-05-27 16:53:07.375,58547,10908,8062,29937,59379
2025-05-27 16:53:07.377,58576,10898,8055,29957,59368
2025-05-27 16:53:07.378,58536,10908,8056,29943,59368
2025-05-27 16:53:07.381,58532,10898,8060,29955,59361
2025-05-27 16:53:07.390,58547,10911,8059,29951,59372
2025-05-27 16:53:07.403,58530,10904,8067,29945,59365
2025-05-27 16:53:07.414,58522,10900,8055,29939,59360
2025-05-27 16:53:07.421,58509,10918,8054,29942,59358
2025-05-27 16:53:07.448,58529,10907,8038,29929,59347
2025-05-27 16:53:07.450,58509,10936,8050,29921,59366
2025-05-27 16:53:07.453,58512,10912,8056,29933,59366
2025-05-27 16:53:07.463,58501,10906,8058,29927,59331
2025-05-27 16:53:07.473,58500,10900,8061,29933,59336
2025-05-27 16:53:07.482,58507,10919,8064,29925,59353
2025-05-27 16:53:07.493,58521,10914,8069,29913,59337
2025-05-27 16:53:07.521,58550,10913,8062,29915,59353
2025-05-27 16:53:07.523,58519,10930,8072,29927,59342
2025-05-27 16:53:07.524,58570,10918,8067,29945,59360
2025-05-27 16:53:07.534,58547,10929,8072,29947,59360
2025-05-27 16:53:07.542,58571,10921,8072,29938,59373
2025-05-27 16:53:07.554,58577,10937,8077,29934,59388
2025-05-27 16:53:07.562,58564,10929,8079,29937,59396
2025-05-27 16:53:07.590,58590,10935,8069,29938,59380
2025-05-27 16:53:07.592,58589,10934,8072,29940,59371
2025-05-27 16:53:07.593,58625,10945,8069,29926,59369
2025-05-27 16:53:07.602,58612,10930,8087,29944,59390
2025-05-27 16:53:07.613,58645,10931,8073,29931,59368
2025-05-27 16:53:07.621,58627,10918,8076,29939,59369
2025-05-27 16:53:07.633,58642,10915,8068,29932,59371
2025-05-27 16:53:07.659,58626,10925,8077,29927,59380
2025-05-27 16:53:07.661,58641,10918,8056,29933,59374
2025-05-27 16:53:07.662,58654,10929,8064,29940,59365
2025-05-27 16:53:07.673,58654,10917,8068,29922,59334
2025-05-27 16:53:07.682,58656,10918,8052,29923,59364
2025-05-27 16:53:07.694,58654,10903,8057,29915,59369
2025-05-27 16:53:07.705,58652,10922,8060,29909,59341
2025-05-27 16:53:07.727,58645,10898,8063,29917,59363
2025-05-27 16:53:07.729,58645,10889,8063,29907,59339
2025-05-27 16:53:07.734,58637,10904,8064,29916,59327
2025-05-27 16:53:07.746,58627,10871,8054,29901,59318
2025-05-27 16:53:07.754,58612,10873,8055,29902,59335
2025-05-27 16:53:07.766,58588,10862,8064,29900,59322
2025-05-27 16:53:07.773,58561,10873,8061,29907,59322
2025-05-27 16:53:07.797,58542,10868,8057,29909,59324
2025-05-27 16:53:07.799,58530,10852,8055,29915,59336
2025-05-27 16:53:07.805,58527,10890,8041,29897,59310
2025-05-27 16:53:07.813,58506,10847,8051,29904,59311
2025-05-27 16:53:07.825,58496,10877,8051,29899,59330
2025-05-27 16:53:07.833,58472,10841,8054,29900,59308
2025-05-27 16:53:07.846,58470,10871,8040,29891,59307
2025-05-27 16:53:07.868,58463,10843,8029,29898,59291
2025-05-27 16:53:07.870,58468,10844,8035,29903,59290
2025-05-27 16:53:07.874,58447,10853,8028,29907,59312
2025-05-27 16:53:07.886,58428,10843,8034,29907,59304
2025-05-27 16:53:07.893,58414,10861,8042,29887,59303
2025-05-27 16:53:07.906,58418,10836,8016,29921,59288
2025-05-27 16:53:07.914,58433,10847,8036,29900,59295
2025-05-27 16:53:07.938,58421,10843,8028,29895,59299
2025-05-27 16:53:07.939,58427,10860,8034,29905,59290
2025-05-27 16:53:07.945,58426,10842,8033,29907,59298
2025-05-27 16:53:07.953,58443,10860,8011,29879,59275
2025-05-27 16:53:07.965,58459,10837,8029,29879,59285
2025-05-27 16:53:07.974,58457,10817,8027,29887,59285
2025-05-27 16:53:07.985,58453,10840,8033,29907,59292
2025-05-27 16:53:08.004,58479,10839,8024,29893,59296
2025-05-27 16:53:08.006,58488,10833,8023,29859,59292
2025-05-27 16:53:08.017,58468,10838,8025,29885,59287
2025-05-27 16:53:08.025,58468,10838,8025,29885,59287
2025-05-27 16:53:08.037,58474,10841,8037,29870,59284
2025-05-27 16:53:08.045,58462,10837,8040,29873,59271
2025-05-27 16:53:08.072,58480,10838,8024,29879,59262
2025-05-27 16:53:08.074,58476,10842,8033,29868,59278
2025-05-27 16:53:08.077,58460,10833,8018,29864,59276
2025-05-27 16:53:08.085,58470,10836,8023,29871,59255
2025-05-27 16:53:08.097,58461,10839,8024,29874,59257
2025-05-27 16:53:08.106,58465,10829,8016,29859,59263
2025-05-27 16:53:08.118,58461,10838,8055,29863,59255
2025-05-27 16:53:08.140,58475,10826,8004,29879,59264
2025-05-27 16:53:08.141,58476,10830,8048,29869,59247
2025-05-27 16:53:08.145,58489,10845,8021,29868,59252
2025-05-27 16:53:08.157,58490,10830,8038,29857,59228
2025-05-27 16:53:08.160,58490,10830,8038,29857,59228
2025-05-27 16:53:08.165,58528,10827,8016,29874,59230
2025-05-27 16:53:08.177,58515,10838,8053,29840,59226
2025-05-27 16:53:08.185,58523,10830,8019,29835,59214
2025-05-27 16:53:08.210,58523,10826,8038,29836,59227
2025-05-27 16:53:08.212,58534,10822,7990,29828,59206
2025-05-27 16:53:08.217,58535,10835,8037,29835,59206
2025-05-27 16:53:08.225,58513,10840,8031,29841,59189
2025-05-27 16:53:08.237,58517,10824,8035,29840,59206
2025-05-27 16:53:08.245,58518,10836,8045,29824,59196
2025-05-27 16:53:08.256,58525,10818,8040,29825,59188
2025-05-27 16:53:08.280,58517,10815,8024,29846,59187
2025-05-27 16:53:08.282,58531,10835,8048,29842,59180
2025-05-27 16:53:08.285,58526,10833,8037,29832,59180
2025-05-27 16:53:08.297,58554,10845,8042,29821,59182
2025-05-27 16:53:08.306,58549,10827,8040,29829,59177
2025-05-27 16:53:08.318,58558,10832,8074,29825,59172
2025-05-27 16:53:08.325,58558,10832,8045,29830,59173
2025-05-27 16:53:08.348,58547,10846,8048,29839,59177
2025-05-27 16:53:08.350,58573,10833,8041,29819,59173
2025-05-27 16:53:08.357,58574,10846,8036,29823,59165
2025-05-27 16:53:08.369,58568,10813,8045,29812,59178
2025-05-27 16:53:08.377,58569,10824,8044,29835,59157
2025-05-27 16:53:08.389,58562,10823,8037,29822,59146
2025-05-27 16:53:08.397,58565,10836,8046,29806,59177
2025-05-27 16:53:08.418,58566,10820,8044,29843,59151
2025-05-27 16:53:08.419,58558,10821,8024,29820,59152
2025-05-27 16:53:08.429,58539,10812,8036,29814,59156
2025-05-27 16:53:08.437,58528,10818,8031,29830,59153
2025-05-27 16:53:08.449,58510,10800,8022,29816,59154
2025-05-27 16:53:08.457,58502,10796,8027,29825,59145
2025-05-27 16:53:08.486,58494,10794,8017,29810,59159
2025-05-27 16:53:08.488,58486,10804,8029,29815,59167
2025-05-27 16:53:08.490,58472,10799,8022,29807,59150
2025-05-27 16:53:08.498,58461,10789,8006,29810,59135
2025-05-27 16:53:08.509,58457,10774,8011,29818,59142
2025-05-27 16:53:08.518,58464,10784,8003,29818,59138
2025-05-27 16:53:08.529,58459,10783,8008,29796,59152
2025-05-27 16:53:08.551,58447,10775,8011,29808,59141
2025-05-27 16:53:08.553,58459,10776,8016,29814,59139
2025-05-27 16:53:08.562,58448,10785,8012,29802,59148
2025-05-27 16:53:08.563,58448,10785,8012,29802,59148
2025-05-27 16:53:08.570,58461,10787,8007,29791,59137
2025-05-27 16:53:08.577,58453,10777,8008,29800,59150
2025-05-27 16:53:08.591,58471,10781,8011,29800,59134
2025-05-27 16:53:08.597,58461,10778,8004,29815,59128
2025-05-27 16:53:08.618,58463,10767,8004,29812,59126
2025-05-27 16:53:08.621,58458,10785,8011,29804,59136
2025-05-27 16:53:08.629,58488,10784,8003,29802,59133
2025-05-27 16:53:08.641,58489,10785,8006,29809,59132
2025-05-27 16:53:08.649,58487,10781,8013,29789,59138
2025-05-27 16:53:08.661,58485,10771,8002,29798,59132
2025-05-27 16:53:08.688,58488,10773,8013,29820,59128
2025-05-27 16:53:08.690,58473,10765,7996,29791,59128
2025-05-27 16:53:08.692,58473,10772,8004,29811,59136
2025-05-27 16:53:08.702,58484,10787,7992,29773,59129
2025-05-27 16:53:08.709,58478,10781,8004,29792,59131
2025-05-27 16:53:08.721,58471,10777,8002,29774,59140
2025-05-27 16:53:08.728,58478,10780,8018,29827,59131
2025-05-27 16:53:08.755,58491,10786,8013,29778,59133
2025-05-27 16:53:08.757,58488,10765,8000,29784,59137
2025-05-27 16:53:08.761,58488,10781,8000,29795,59135
2025-05-27 16:53:08.770,58494,10778,8004,29774,59142
2025-05-27 16:53:08.781,58494,10785,8007,29798,59147
2025-05-27 16:53:08.789,58491,10768,8005,29788,59132
2025-05-27 16:53:08.801,58504,10763,7997,29786,59134
2025-05-27 16:53:08.824,58502,10790,8020,29765,59139
2025-05-27 16:53:08.825,58508,10772,8016,29787,59118
2025-05-27 16:53:08.829,58502,10777,7999,29771,59148
2025-05-27 16:53:08.840,58491,10784,8002,29775,59111
2025-05-27 16:53:08.849,58497,10780,8014,29778,59111
2025-05-27 16:53:08.861,58506,10763,8017,29769,59125
2025-05-27 16:53:08.868,58485,10780,8009,29779,59112
2025-05-27 16:53:08.891,58499,10782,8001,29762,59117
2025-05-27 16:53:08.892,58494,10775,8018,29772,59097
2025-05-27 16:53:08.901,58508,10769,8019,29770,59114
2025-05-27 16:53:08.914,58514,10787,8021,29765,59110
2025-05-27 16:53:08.921,58504,10784,8022,29776,59116
2025-05-27 16:53:08.933,58514,10799,8013,29761,59092
2025-05-27 16:53:08.960,58516,10780,8013,29777,59144
2025-05-27 16:53:08.962,58520,10788,8042,29774,59138
2025-05-27 16:53:08.963,58526,10791,8011,29764,59123
2025-05-27 16:53:08.973,58523,10794,8027,29762,59107
2025-05-27 16:53:08.981,58530,10798,8032,29777,59098
2025-05-27 16:53:08.993,58511,10791,8029,29771,59128
2025-05-27 16:53:09.001,58510,10789,8027,29753,59109
2025-05-27 16:53:09.029,58518,10796,8025,29778,59141
2025-05-27 16:53:09.030,58499,10794,8036,29768,59121
2025-05-27 16:53:09.033,58498,10771,8031,29751,59123
2025-05-27 16:53:09.041,58493,10785,8011,29776,59093
2025-05-27 16:53:09.053,58490,10787,8018,29773,59101
2025-05-27 16:53:09.061,58473,10787,8021,29761,59118
2025-05-27 16:53:09.073,58462,10777,8019,29745,59059
2025-05-27 16:53:09.098,58446,10783,8023,29753,59100
2025-05-27 16:53:09.100,58440,10766,8018,29759,59075
2025-05-27 16:53:09.101,58434,10762,8006,29755,59090
2025-05-27 16:53:09.114,58416,10756,7998,29747,59055
2025-05-27 16:53:09.121,58425,10763,8015,29762,59085
2025-05-27 16:53:09.134,58420,10756,7996,29757,59073
2025-05-27 16:53:09.140,58430,10754,8012,29742,59081
2025-05-27 16:53:09.168,58399,10751,8007,29751,59081
2025-05-27 16:53:09.170,58393,10745,7986,29751,59067
2025-05-27 16:53:09.172,58409,10748,8005,29748,59089
2025-05-27 16:53:09.182,58416,10743,7984,29740,59077
2025-05-27 16:53:09.193,58407,10738,7998,29746,59057
2025-05-27 16:53:09.201,58404,10730,7992,29739,59068
2025-05-27 16:53:09.213,58413,10725,7965,29729,59068
2025-05-27 16:53:09.240,58403,10733,7981,29732,59050
2025-05-27 16:53:09.242,58410,10724,7986,29736,59063
2025-05-27 16:53:09.245,58407,10714,7987,29744,59057
2025-05-27 16:53:09.253,58393,10720,7989,29738,59055
2025-05-27 16:53:09.265,58389,10723,7974,29737,59064
2025-05-27 16:53:09.274,58400,10731,7983,29739,59062
2025-05-27 16:53:09.285,58374,10725,7984,29738,59056
2025-05-27 16:53:09.311,58397,10726,7992,29730,59046
2025-05-27 16:53:09.312,58373,10725,7982,29725,59047
2025-05-27 16:53:09.314,58402,10725,7988,29737,59037
2025-05-27 16:53:09.325,58379,10727,7975,29736,59053
2025-05-27 16:53:09.333,58360,10735,7982,29730,59059
2025-05-27 16:53:09.346,58380,10705,7986,29738,59040
2025-05-27 16:53:09.353,58365,10721,7978,29725,59025
2025-05-27 16:53:09.382,58396,10700,7983,29722,59046
2025-05-27 16:53:09.384,58386,10700,7982,29714,59037
2025-05-27 16:53:09.386,58383,10714,8001,29721,59042
2025-05-27 16:53:09.393,58390,10726,7970,29721,59042
2025-05-27 16:53:09.405,58383,10705,7975,29732,59042
2025-05-27 16:53:09.413,58360,10701,7976,29721,59061
2025-05-27 16:53:09.425,58379,10703,7986,29741,59047
2025-05-27 16:53:09.452,58391,10728,7988,29729,59057
2025-05-27 16:53:09.454,58375,10723,7982,29735,59068
2025-05-27 16:53:09.455,58378,10718,7995,29744,59058
2025-05-27 16:53:09.465,58382,10710,7989,29712,59067
2025-05-27 16:53:09.473,58378,10715,7985,29718,59064
2025-05-27 16:53:09.484,58357,10709,7984,29730,59070
2025-05-27 16:53:09.493,58371,10711,7999,29731,59052
2025-05-27 16:53:09.521,58358,10718,7982,29724,59051
2025-05-27 16:53:09.522,58366,10734,7986,29712,59048
2025-05-27 16:53:09.524,58363,10702,7984,29734,59053
2025-05-27 16:53:09.537,58374,10713,7988,29712,59035
2025-05-27 16:53:09.544,58346,10724,7978,29705,59049
2025-05-27 16:53:09.557,58347,10703,7979,29707,59037
2025-05-27 16:53:09.565,58354,10722,7997,29731,59032
2025-05-27 16:53:09.590,58360,10709,7987,29720,59043
2025-05-27 16:53:09.592,58354,10714,7995,29713,59043
2025-05-27 16:53:09.596,58343,10708,7993,29722,59044
2025-05-27 16:53:09.605,58355,10724,7984,29713,59050
2025-05-27 16:53:09.618,58357,10716,7991,29735,59036
2025-05-27 16:53:09.625,58324,10731,8007,29731,59032
2025-05-27 16:53:09.637,58348,10720,7992,29721,59044
2025-05-27 16:53:09.659,58336,10722,7997,29712,59045
2025-05-27 16:53:09.661,58367,10730,8010,29718,59045
2025-05-27 16:53:09.665,58332,10725,7993,29719,59039
2025-05-27 16:53:09.677,58340,10728,8001,29709,59054
2025-05-27 16:53:09.685,58315,10719,7999,29722,59056
2025-05-27 16:53:09.697,58326,10730,8035,29718,59053
2025-05-27 16:53:09.706,58322,10726,8015,29712,59033
2025-05-27 16:53:09.727,58325,10728,8009,29710,59054
2025-05-27 16:53:09.729,58343,10725,8000,29724,59062
2025-05-27 16:53:09.738,58331,10730,7998,29711,59035
2025-05-27 16:53:09.745,58324,10743,8009,29710,59053
2025-05-27 16:53:09.757,58344,10738,8010,29701,59049
2025-05-27 16:53:09.765,58344,10719,7995,29715,59037
2025-05-27 16:53:09.796,58312,10728,8008,29697,59054
2025-05-27 16:53:09.797,58311,10732,7994,29716,59043
2025-05-27 16:53:09.799,58304,10715,8007,29728,59055
2025-05-27 16:53:09.806,58306,10719,8006,29702,59028
2025-05-27 16:53:09.816,58307,10697,7995,29702,59050
2025-05-27 16:53:09.829,58289,10694,7991,29701,59044
2025-05-27 16:53:09.837,58307,10715,7981,29694,59050
2025-05-27 16:53:09.868,58281,10715,7991,29716,59051
2025-05-27 16:53:09.870,58302,10704,8007,29702,59050
2025-05-27 16:53:09.872,58289,10695,7972,29695,59043
2025-05-27 16:53:09.877,58279,10702,7974,29693,59049
2025-05-27 16:53:09.889,58284,10696,7965,29716,59044
2025-05-27 16:53:09.897,58284,10711,7988,29701,59032
2025-05-27 16:53:09.909,58274,10693,7997,29696,59034
2025-05-27 16:53:09.917,58274,10685,7973,29694,59043
2025-05-27 16:53:09.939,58271,10691,7977,29706,59041
2025-05-27 16:53:09.941,58261,10677,7992,29697,59050
2025-05-27 16:53:09.950,58261,10695,7968,29692,59065
2025-05-27 16:53:09.957,58253,10692,7978,29685,59074
2025-05-27 16:53:09.969,58262,10690,7979,29703,59081
2025-05-27 16:53:09.973,58262,10690,7979,29703,59081
2025-05-27 16:53:09.977,58267,10685,7978,29694,59073
2025-05-27 16:53:10.006,58276,10704,7977,29698,59092
2025-05-27 16:53:10.008,58273,10684,7970,29695,59071
2025-05-27 16:53:10.009,58277,10688,7984,29709,59092
2025-05-27 16:53:10.016,58280,10703,7968,29693,59070
2025-05-27 16:53:10.029,58287,10688,7957,29697,59086
2025-05-27 16:53:10.037,58286,10700,7958,29689,59069
2025-05-27 16:53:10.049,58281,10666,7975,29702,59076
2025-05-27 16:53:10.075,58291,10682,7977,29692,59089
2025-05-27 16:53:10.077,58271,10682,7962,29688,59078
2025-05-27 16:53:10.079,58277,10679,7959,29700,59079
2025-05-27 16:53:10.089,58290,10681,7969,29701,59071
2025-05-27 16:53:10.097,58281,10685,7968,29699,59073
2025-05-27 16:53:10.109,58268,10685,7965,29681,59063
2025-05-27 16:53:10.121,58272,10672,7963,29695,59056
2025-05-27 16:53:10.144,58259,10680,7952,29676,59077
2025-05-27 16:53:10.146,58254,10681,7965,29696,59065
2025-05-27 16:53:10.148,58239,10681,7964,29677,59059
2025-05-27 16:53:10.161,58233,10666,7961,29689,59072
2025-05-27 16:53:10.169,58237,10678,7972,29700,59059
2025-05-27 16:53:10.181,58211,10669,7959,29682,59054
2025-05-27 16:53:10.189,58239,10665,7982,29688,59045
2025-05-27 16:53:10.213,58212,10670,7965,29685,59049
2025-05-27 16:53:10.215,58203,10661,7973,29686,59039
2025-05-27 16:53:10.221,58196,10674,7983,29679,59029
2025-05-27 16:53:10.228,58207,10662,7977,29672,59041
2025-05-27 16:53:10.240,58191,10676,7973,29657,59020
2025-05-27 16:53:10.249,58205,10665,7976,29673,59037
2025-05-27 16:53:10.260,58201,10677,7969,29673,59033
2025-05-27 16:53:10.283,58195,10667,7969,29677,59031
2025-05-27 16:53:10.286,58187,10688,7984,29680,59045
2025-05-27 16:53:10.289,58184,10667,7959,29678,59013
2025-05-27 16:53:10.301,58168,10689,7994,29653,59029
2025-05-27 16:53:10.310,58159,10668,7976,29670,59029
2025-05-27 16:53:10.321,58185,10674,7973,29672,59032
2025-05-27 16:53:10.328,58179,10688,7968,29669,59023
2025-05-27 16:53:10.354,58163,10690,7987,29676,59028
2025-05-27 16:53:10.356,58175,10682,7953,29667,59027
2025-05-27 16:53:10.361,58172,10671,7978,29679,59022
2025-05-27 16:53:10.373,58155,10680,7970,29668,59021
2025-05-27 16:53:10.382,58168,10689,7973,29675,59029
2025-05-27 16:53:10.389,58168,10683,7964,29667,59029
2025-05-27 16:53:10.401,58169,10714,7985,29661,59029
2025-05-27 16:53:10.427,58186,10693,7995,29659,59011
2025-05-27 16:53:10.429,58173,10694,8000,29674,59009
2025-05-27 16:53:10.433,58167,10700,7995,29661,59024
2025-05-27 16:53:10.441,58175,10723,7991,29659,59015
2025-05-27 16:53:10.453,58162,10683,7978,29665,59020
2025-05-27 16:53:10.461,58162,10676,7998,29636,59004
2025-05-27 16:53:10.472,58160,10683,7983,29656,58985
2025-05-27 16:53:10.497,58142,10678,7989,29663,58996
2025-05-27 16:53:10.499,58143,10678,7984,29660,58994
2025-05-27 16:53:10.501,58131,10681,7975,29655,58983
2025-05-27 16:53:10.512,58137,10674,7978,29643,58983
2025-05-27 16:53:10.521,58131,10661,7970,29643,58959
2025-05-27 16:53:10.533,58116,10673,7977,29641,58964
2025-05-27 16:53:10.542,58116,10672,7960,29626,58954
2025-05-27 16:53:10.566,58100,10668,7962,29651,58969
2025-05-27 16:53:10.568,58101,10647,7956,29625,58970
2025-05-27 16:53:10.573,58091,10658,7965,29640,58959
2025-05-27 16:53:10.581,58106,10643,7953,29641,58955
2025-05-27 16:53:10.593,58102,10649,7956,29636,58960
2025-05-27 16:53:10.601,58104,10650,7952,29644,58966
2025-05-27 16:53:10.612,58103,10650,7955,29638,58963
2025-05-27 16:53:10.634,58108,10655,7961,29636,58960
2025-05-27 16:53:10.636,58095,10644,7964,29639,58971
2025-05-27 16:53:10.641,58087,10657,7958,29642,58966
2025-05-27 16:53:10.653,58120,10657,7966,29629,58961
2025-05-27 16:53:10.662,58081,10634,7948,29638,58961
2025-05-27 16:53:10.672,58082,10646,7958,29639,58963
2025-05-27 16:53:10.680,58094,10657,7963,29640,58970
2025-05-27 16:53:10.703,58094,10650,7953,29626,58947
2025-05-27 16:53:10.705,58082,10645,7953,29630,58954
2025-05-27 16:53:10.713,58084,10636,7954,29624,58950
2025-05-27 16:53:10.725,58070,10631,7963,29623,58939
2025-05-27 16:53:10.733,58068,10642,7964,29651,58954
2025-05-27 16:53:10.744,58061,10653,7959,29622,58929
2025-05-27 16:53:10.771,58071,10639,7956,29619,58956
2025-05-27 16:53:10.773,58053,10630,7949,29629,58954
2025-05-27 16:53:10.774,58072,10630,7961,29614,58919
2025-05-27 16:53:10.785,58086,10643,7953,29613,58934
2025-05-27 16:53:10.793,58077,10642,7958,29616,58934
2025-05-27 16:53:10.805,58080,10630,7959,29621,58936
2025-05-27 16:53:10.812,58091,10643,7962,29608,58941
2025-05-27 16:53:10.841,58078,10638,7963,29622,58934
2025-05-27 16:53:10.843,58086,10640,7967,29615,58948
2025-05-27 16:53:10.844,58061,10647,7957,29625,58946
2025-05-27 16:53:10.853,58073,10644,7955,29621,58938
2025-05-27 16:53:10.865,58077,10637,7961,29616,58933
2025-05-27 16:53:10.873,58082,10634,7965,29613,58931
2025-05-27 16:53:10.885,58057,10644,7959,29629,58930
2025-05-27 16:53:10.909,58073,10646,7972,29625,58932
2025-05-27 16:53:10.911,58058,10626,7970,29609,58949
2025-05-27 16:53:10.913,58071,10651,7963,29618,58964
2025-05-27 16:53:10.924,58049,10649,7965,29606,58963
2025-05-27 16:53:10.932,58062,10632,7965,29615,58939
2025-05-27 16:53:10.945,58058,10638,7959,29610,58911
2025-05-27 16:53:10.953,58056,10642,7966,29612,58913
2025-05-27 16:53:10.979,58041,10638,7958,29601,58910
2025-05-27 16:53:10.981,58042,10644,7963,29614,58912
2025-05-27 16:53:10.984,58060,10639,7964,29612,58921
2025-05-27 16:53:10.993,58030,10635,7963,29597,58910
2025-05-27 16:53:11.005,58059,10660,7967,29610,58923
2025-05-27 16:53:11.013,58042,10646,7965,29595,58932
2025-05-27 16:53:11.024,58038,10652,7962,29599,58923
2025-05-27 16:53:11.048,58057,10644,7975,29611,58913
2025-05-27 16:53:11.050,58023,10662,7981,29608,58901
2025-05-27 16:53:11.056,58033,10648,7981,29606,58914
2025-05-27 16:53:11.065,58017,10663,7986,29606,58923
2025-05-27 16:53:11.077,58038,10633,7960,29607,58919
2025-05-27 16:53:11.085,58031,10643,7974,29601,58907
2025-05-27 16:53:11.096,58038,10640,7974,29600,58919
2025-05-27 16:53:11.118,58027,10664,7957,29608,58912
2025-05-27 16:53:11.119,58015,10654,7976,29606,58926
2025-05-27 16:53:11.125,58003,10653,7964,29611,58924
2025-05-27 16:53:11.136,58002,10661,7957,29614,58905
2025-05-27 16:53:11.145,58010,10646,7969,29589,58910
2025-05-27 16:53:11.156,58018,10664,7975,29578,58886
2025-05-27 16:53:11.165,57999,10655,7969,29603,58901
2025-05-27 16:53:11.187,57993,10658,7982,29597,58900
2025-05-27 16:53:11.188,57993,10658,7982,29597,58900
2025-05-27 16:53:11.190,58010,10650,7978,29578,58895
2025-05-27 16:53:11.197,58009,10639,7968,29576,58863
2025-05-27 16:53:11.205,57989,10642,7970,29578,58880
2025-05-27 16:53:11.216,57989,10635,7970,29564,58845
2025-05-27 16:53:11.225,57994,10649,7964,29581,58864
2025-05-27 16:53:11.256,57990,10646,7965,29579,58873
2025-05-27 16:53:11.257,58003,10620,7958,29570,58866
2025-05-27 16:53:11.259,58000,10626,7948,29575,58864
2025-05-27 16:53:11.265,58012,10628,7953,29560,58861
2025-05-27 16:53:11.278,57993,10615,7954,29580,58847
2025-05-27 16:53:11.284,57991,10624,7941,29574,58851
2025-05-27 16:53:11.296,57992,10618,7939,29580,58870
2025-05-27 16:53:11.328,57992,10615,7947,29561,58864
2025-05-27 16:53:11.329,58001,10626,7957,29554,58857
2025-05-27 16:53:11.331,57990,10626,7948,29566,58849
2025-05-27 16:53:11.337,58028,10604,7968,29567,58852
2025-05-27 16:53:11.348,57991,10620,7946,29557,58850
2025-05-27 16:53:11.357,58018,10615,7949,29559,58844
2025-05-27 16:53:11.369,58005,10617,7948,29562,58860
2025-05-27 16:53:11.396,58009,10620,7946,29550,58839
2025-05-27 16:53:11.397,57989,10606,7938,29562,58834
2025-05-27 16:53:11.399,58008,10617,7976,29558,58839
2025-05-27 16:53:11.408,58011,10623,7948,29551,58840
2025-05-27 16:53:11.416,57988,10614,7948,29551,58863
2025-05-27 16:53:11.429,57991,10616,7967,29554,58830
2025-05-27 16:53:11.437,57995,10592,7952,29550,58856
2025-05-27 16:53:11.471,57995,10625,7968,29561,58854
2025-05-27 16:53:11.473,57995,10625,7937,29543,58837
2025-05-27 16:53:11.474,58008,10630,7952,29559,58834
2025-05-27 16:53:11.476,58009,10619,7959,29563,58847
2025-05-27 16:53:11.488,58000,10632,7959,29541,58840
2025-05-27 16:53:11.496,57987,10604,7968,29558,58831
2025-05-27 16:53:11.508,57983,10611,7951,29555,58837
2025-05-27 16:53:11.516,57964,10599,7964,29564,58833
2025-05-27 16:53:11.542,57961,10622,7960,29556,58843
2025-05-27 16:53:11.544,57951,10635,7948,29572,58853
2025-05-27 16:53:11.548,57958,10612,7946,29561,58832
2025-05-27 16:53:11.557,57946,10621,7934,29575,58833
2025-05-27 16:53:11.568,57941,10615,7942,29553,58830
2025-05-27 16:53:11.581,57931,10606,7950,29544,58823
2025-05-27 16:53:11.588,57934,10608,7933,29560,58827
2025-05-27 16:53:11.610,57939,10612,7944,29546,58816
2025-05-27 16:53:11.612,57928,10612,7947,29540,58825
2025-05-27 16:53:11.621,57919,10611,7942,29557,58831
2025-05-27 16:53:11.629,57925,10618,7955,29545,58816
2025-05-27 16:53:11.640,57942,10626,7956,29560,58820
2025-05-27 16:53:11.649,57929,10600,7940,29578,58813
2025-05-27 16:53:11.681,57939,10622,7933,29558,58805
2025-05-27 16:53:11.683,57955,10616,7943,29560,58815
2025-05-27 16:53:11.684,57947,10639,7954,29518,58810
2025-05-27 16:53:11.688,57948,10615,7939,29544,58820
2025-05-27 16:53:11.701,57946,10635,7941,29534,58829
2025-05-27 16:53:11.708,57951,10633,7957,29556,58823
2025-05-27 16:53:11.721,57947,10601,7954,29545,58816
2025-05-27 16:53:11.729,57954,10620,7945,29547,58812
2025-05-27 16:53:11.752,57965,10627,7962,29536,58818
2025-05-27 16:53:11.753,57942,10623,7958,29541,58803
2025-05-27 16:53:11.760,57944,10614,7961,29543,58820
2025-05-27 16:53:11.768,57951,10630,7953,29532,58825
2025-05-27 16:53:11.781,57941,10626,7968,29523,58817
2025-05-27 16:53:11.788,57946,10629,7979,29541,58822
2025-05-27 16:53:11.800,57963,10629,7964,29529,58822
2025-05-27 16:53:11.820,57943,10634,7964,29537,58803
2025-05-27 16:53:11.822,57957,10626,7970,29556,58808
2025-05-27 16:53:11.828,57951,10635,7974,29523,58815
2025-05-27 16:53:11.840,57953,10640,7955,29526,58806
2025-05-27 16:53:11.849,57950,10658,7968,29525,58805
2025-05-27 16:53:11.860,57940,10628,7962,29518,58808
2025-05-27 16:53:11.869,57954,10637,7967,29528,58801
2025-05-27 16:53:11.893,57963,10641,7983,29525,58795
2025-05-27 16:53:11.894,57966,10633,7953,29534,58787
2025-05-27 16:53:11.900,57982,10635,7969,29517,58790
2025-05-27 16:53:11.912,57962,10649,7962,29511,58779
2025-05-27 16:53:11.920,57962,10638,7955,29519,58776
2025-05-27 16:53:11.933,57986,10637,7945,29534,58787
2025-05-27 16:53:11.940,57955,10620,7972,29513,58798
2025-05-27 16:53:11.960,57959,10609,7952,29517,58784
2025-05-27 16:53:11.962,57977,10621,7926,29512,58783
2025-05-27 16:53:11.972,57965,10623,7941,29537,58777
2025-05-27 16:53:11.980,57964,10621,7941,29520,58769
2025-05-27 16:53:11.992,57967,10608,7956,29498,58772
2025-05-27 16:53:12.000,57965,10622,7960,29518,58759
2025-05-27 16:53:12.028,57968,10616,7942,29500,58767
2025-05-27 16:53:12.029,57970,10620,7940,29529,58764
2025-05-27 16:53:12.032,57971,10607,7935,29482,58759
2025-05-27 16:53:12.040,57980,10603,7949,29513,58769
2025-05-27 16:53:12.052,57965,10610,7957,29508,58763
2025-05-27 16:53:12.060,57973,10615,7946,29528,58762
2025-05-27 16:53:12.073,57972,10605,7954,29499,58773
2025-05-27 16:53:12.097,57988,10612,7936,29504,58753
2025-05-27 16:53:12.099,57971,10617,7941,29507,58759
2025-05-27 16:53:12.101,57969,10620,7945,29518,58758
2025-05-27 16:53:12.112,57956,10616,7942,29510,58745
2025-05-27 16:53:12.121,57943,10608,7938,29500,58758
2025-05-27 16:53:12.132,57942,10610,7953,29504,58740
2025-05-27 16:53:12.141,57937,10611,7935,29514,58758
2025-05-27 16:53:12.165,57939,10613,7943,29502,58757
2025-05-27 16:53:12.167,57923,10610,7948,29488,58767
2025-05-27 16:53:12.172,57931,10606,7938,29495,58762
2025-05-27 16:53:12.184,57917,10615,7945,29506,58760
2025-05-27 16:53:12.193,57919,10596,7925,29511,58756
2025-05-27 16:53:12.205,57878,10597,7950,29501,58748
2025-05-27 16:53:12.211,57907,10606,7935,29509,58763
2025-05-27 16:53:12.236,57900,10604,7936,29499,58753
2025-05-27 16:53:12.238,57878,10615,7941,29490,58753
2025-05-27 16:53:12.244,57889,10598,7924,29498,58751
2025-05-27 16:53:12.252,57890,10607,7927,29495,58759
2025-05-27 16:53:12.264,57893,10607,7926,29519,58758
2025-05-27 16:53:12.272,57892,10613,7937,29497,58745
2025-05-27 16:53:12.284,57892,10597,7921,29501,58759
2025-05-27 16:53:12.305,57903,10606,7933,29495,58737
2025-05-27 16:53:12.306,57887,10613,7916,29515,58772
2025-05-27 16:53:12.312,57906,10617,7931,29494,58743
2025-05-27 16:53:12.324,57887,10612,7934,29486,58749
2025-05-27 16:53:12.332,57898,10598,7935,29486,58766
2025-05-27 16:53:12.344,57881,10606,7934,29502,58756
2025-05-27 16:53:12.352,57887,10598,7939,29477,58760
2025-05-27 16:53:12.373,57864,10614,7928,29506,58750
2025-05-27 16:53:12.375,57882,10604,7933,29492,58747
2025-05-27 16:53:12.384,57887,10606,7933,29491,58744
2025-05-27 16:53:12.388,57887,10606,7933,29491,58744
2025-05-27 16:53:12.392,57878,10614,7938,29480,58732
2025-05-27 16:53:12.404,57885,10615,7963,29504,58731
2025-05-27 16:53:12.412,57887,10614,7939,29481,58737
2025-05-27 16:53:12.443,57887,10609,7939,29484,58731
2025-05-27 16:53:12.445,57881,10615,7951,29474,58747
2025-05-27 16:53:12.446,57881,10607,7932,29477,58720
2025-05-27 16:53:12.453,57862,10617,7945,29468,58724
2025-05-27 16:53:12.465,57908,10621,7952,29495,58724
2025-05-27 16:53:12.472,57894,10634,7955,29474,58724
2025-05-27 16:53:12.484,57897,10623,7957,29480,58738
2025-05-27 16:53:12.515,57890,10625,7954,29468,58736
2025-05-27 16:53:12.516,57903,10620,7956,29482,58730
2025-05-27 16:53:12.518,57908,10618,7943,29479,58734
2025-05-27 16:53:12.524,57913,10646,7965,29483,58737
2025-05-27 16:53:12.537,57902,10626,7960,29481,58736
2025-05-27 16:53:12.544,57907,10641,7964,29462,58723
2025-05-27 16:53:12.556,57923,10642,7970,29476,58719
2025-05-27 16:53:12.584,57882,10636,7959,29463,58718
2025-05-27 16:53:12.586,57897,10639,7949,29475,58700
2025-05-27 16:53:12.587,57924,10655,7954,29466,58707
2025-05-27 16:53:12.596,57894,10616,7953,29476,58694
2025-05-27 16:53:12.604,57901,10625,7959,29455,58703
2025-05-27 16:53:12.616,57869,10628,7948,29467,58698
2025-05-27 16:53:12.624,57895,10623,7950,29460,58678
2025-05-27 16:53:12.652,57877,10624,7955,29457,58694
2025-05-27 16:53:12.653,57873,10611,7947,29451,58684
2025-05-27 16:53:12.655,57873,10606,7943,29458,58669
2025-05-27 16:53:12.665,57875,10601,7932,29471,58677
2025-05-27 16:53:12.676,57863,10598,7932,29454,58683
2025-05-27 16:53:12.684,57869,10602,7931,29458,58659
2025-05-27 16:53:12.697,57877,10598,7928,29458,58674
2025-05-27 16:53:12.721,57873,10603,7928,29465,58678
2025-05-27 16:53:12.722,57866,10592,7925,29460,58682
2025-05-27 16:53:12.724,57867,10592,7928,29454,58683
2025-05-27 16:53:12.736,57854,10598,7915,29444,58682
2025-05-27 16:53:12.744,57877,10589,7921,29464,58682
2025-05-27 16:53:12.756,57839,10592,7919,29458,58662
2025-05-27 16:53:12.764,57880,10598,7911,29451,58676
2025-05-27 16:53:12.795,57853,10589,7908,29455,58666
2025-05-27 16:53:12.797,57840,10601,7915,29441,58679
2025-05-27 16:53:12.798,57859,10577,7914,29474,58683
2025-05-27 16:53:12.809,57817,10569,7915,29443,58683
2025-05-27 16:53:12.816,57857,10590,7912,29453,58668
2025-05-27 16:53:12.828,57807,10584,7910,29439,58667
2025-05-27 16:53:12.837,57847,10576,7925,29446,58657
2025-05-27 16:53:12.869,57810,10587,7906,29448,58670
2025-05-27 16:53:12.871,57796,10597,7906,29454,58681
2025-05-27 16:53:12.873,57817,10595,7912,29447,58675
2025-05-27 16:53:12.876,57798,10573,7905,29431,58663
2025-05-27 16:53:12.889,57785,10587,7919,29434,58648
2025-05-27 16:53:12.896,57798,10560,7920,29454,58650
2025-05-27 16:53:12.908,57799,10583,7906,29453,58653
2025-05-27 16:53:12.916,57812,10580,7912,29442,58637
2025-05-27 16:53:12.938,57796,10578,7888,29454,58651
2025-05-27 16:53:12.940,57809,10572,7909,29452,58653
2025-05-27 16:53:12.948,57808,10559,7903,29432,58646
2025-05-27 16:53:12.956,57822,10576,7895,29421,58641
2025-05-27 16:53:12.969,57813,10567,7913,29432,58641
2025-05-27 16:53:12.976,57801,10575,7895,29438,58655
2025-05-27 16:53:13.009,57798,10584,7897,29425,58647
2025-05-27 16:53:13.011,57810,10578,7912,29444,58645
2025-05-27 16:53:13.013,57803,10592,7910,29456,58664
2025-05-27 16:53:13.016,57793,10560,7919,29446,58639
2025-05-27 16:53:13.029,57809,10612,7913,29445,58653
2025-05-27 16:53:13.037,57807,10556,7903,29438,58652
2025-05-27 16:53:13.048,57813,10603,7907,29430,58648
2025-05-27 16:53:13.056,57810,10566,7920,29446,58642
2025-05-27 16:53:13.083,57794,10578,7903,29446,58656
2025-05-27 16:53:13.085,57799,10612,7898,29439,58653
2025-05-27 16:53:13.088,57788,10579,7915,29435,58647
2025-05-27 16:53:13.100,57800,10610,7898,29437,58640
2025-05-27 16:53:13.108,57786,10581,7905,29436,58643
2025-05-27 16:53:13.121,57804,10597,7914,29430,58630
2025-05-27 16:53:13.129,57788,10579,7919,29433,58642
2025-05-27 16:53:13.153,57786,10585,7903,29425,58639
2025-05-27 16:53:13.156,57789,10589,7917,29437,58642
2025-05-27 16:53:13.160,57791,10596,7903,29430,58629
2025-05-27 16:53:13.169,57788,10605,7906,29436,58632
2025-05-27 16:53:13.181,57793,10589,7910,29431,58638
2025-05-27 16:53:13.188,57791,10596,7927,29435,58644
2025-05-27 16:53:13.200,57793,10598,7927,29424,58643
2025-05-27 16:53:13.224,57796,10596,7944,29410,58627
2025-05-27 16:53:13.226,57807,10583,7942,29431,58629
2025-05-27 16:53:13.228,57803,10605,7919,29428,58626
2025-05-27 16:53:13.240,57822,10595,7947,29441,58638
2025-05-27 16:53:13.249,57803,10622,7930,29419,58630
2025-05-27 16:53:13.260,57811,10595,7950,29420,58626
2025-05-27 16:53:13.269,57821,10620,7955,29422,58620
2025-05-27 16:53:13.296,57829,10629,7921,29418,58623
2025-05-27 16:53:13.298,57840,10621,7956,29407,58628
2025-05-27 16:53:13.300,57831,10624,7931,29427,58638
2025-05-27 16:53:13.309,57829,10611,7947,29435,58628
2025-05-27 16:53:13.321,57842,10654,7927,29433,58632
2025-05-27 16:53:13.329,57830,10618,7969,29430,58629
2025-05-27 16:53:13.340,57830,10632,7944,29425,58632
2025-05-27 16:53:13.368,57837,10620,7955,29411,58645
2025-05-27 16:53:13.370,57812,10651,7961,29417,58642
2025-05-27 16:53:13.372,57819,10636,7933,29434,58640
2025-05-27 16:53:13.381,57805,10646,7964,29434,58619
2025-05-27 16:53:13.393,57818,10636,7932,29436,58629
2025-05-27 16:53:13.401,57791,10640,7958,29429,58623
2025-05-27 16:53:13.412,57766,10617,7935,29431,58619
2025-05-27 16:53:13.448,57775,10630,7943,29428,58613
2025-05-27 16:53:13.451,57764,10618,7941,29427,58624
2025-05-27 16:53:13.453,57765,10612,7932,29441,58618
2025-05-27 16:53:13.455,57762,10622,7929,29418,58619
2025-05-27 16:53:13.460,57770,10620,7932,29419,58627
2025-05-27 16:53:13.473,57744,10597,7948,29445,58600
2025-05-27 16:53:13.480,57724,10599,7933,29409,58609
2025-05-27 16:53:13.492,57746,10604,7932,29424,58610
2025-05-27 16:53:13.521,57736,10607,7927,29423,58609
2025-05-27 16:53:13.523,57759,10593,7920,29418,58608
2025-05-27 16:53:13.525,57761,10605,7927,29416,58603
2025-05-27 16:53:13.535,57747,10603,7921,29423,58591
2025-05-27 16:53:13.539,57758,10590,7931,29414,58601
2025-05-27 16:53:13.552,57744,10592,7912,29402,58592
2025-05-27 16:53:13.560,57755,10576,7913,29419,58603
2025-05-27 16:53:13.593,57759,10593,7914,29410,58592
2025-05-27 16:53:13.594,57757,10586,7915,29413,58593
2025-05-27 16:53:13.596,57761,10581,7909,29391,58589
2025-05-27 16:53:13.598,57761,10581,7909,29391,58589
2025-05-27 16:53:13.600,57743,10582,7907,29409,58580
2025-05-27 16:53:13.612,57739,10590,7909,29393,58573
2025-05-27 16:53:13.621,57743,10572,7904,29394,58565
2025-05-27 16:53:13.632,57738,10581,7903,29384,58563
2025-05-27 16:53:13.641,57720,10577,7895,29401,58553
2025-05-27 16:53:13.667,57710,10566,7895,29401,58554
2025-05-27 16:53:13.669,57703,10554,7893,29410,58564
2025-05-27 16:53:13.672,57724,10578,7899,29387,58558
2025-05-27 16:53:13.684,57699,10578,7902,29409,58551
2025-05-27 16:53:13.693,57701,10568,7893,29410,58577
2025-05-27 16:53:13.704,57695,10565,7901,29418,58571
2025-05-27 16:53:13.712,57699,10576,7896,29398,58578
2025-05-27 16:53:13.737,57704,10557,7891,29398,58570
2025-05-27 16:53:13.740,57706,10578,7903,29408,58558
2025-05-27 16:53:13.744,57720,10568,7895,29383,58565
2025-05-27 16:53:13.752,57711,10574,7893,29381,58568
2025-05-27 16:53:13.764,57715,10583,7887,29393,58550
2025-05-27 16:53:13.772,57731,10561,7883,29389,58554
2025-05-27 16:53:13.784,57737,10574,7900,29391,58556
2025-05-27 16:53:13.814,57754,10565,7903,29374,58562
2025-05-27 16:53:13.816,57736,10576,7905,29383,58548
2025-05-27 16:53:13.818,57751,10573,7892,29368,58574
2025-05-27 16:53:13.824,57754,10589,7890,29401,58566
2025-05-27 16:53:13.832,57772,10569,7891,29388,58573
2025-05-27 16:53:13.844,57772,10581,7899,29365,58566
2025-05-27 16:53:13.853,57790,10589,7911,29396,58563
2025-05-27 16:53:13.887,57793,10593,7900,29360,58591
2025-05-27 16:53:13.889,57796,10589,7905,29392,58562
2025-05-27 16:53:13.891,57811,10594,7904,29348,58561
2025-05-27 16:53:13.893,57818,10594,7908,29402,58551
2025-05-27 16:53:13.903,57815,10583,7893,29365,58567
2025-05-27 16:53:13.912,57814,10590,7907,29375,58574
2025-05-27 16:53:13.923,57815,10588,7905,29403,58555
2025-05-27 16:53:13.932,57812,10606,7896,29368,58527
2025-05-27 16:53:13.960,57822,10599,7913,29386,58528
2025-05-27 16:53:13.962,57811,10591,7907,29351,58554
2025-05-27 16:53:13.964,57823,10607,7923,29386,58555
2025-05-27 16:53:13.975,57824,10595,7903,29353,58557
2025-05-27 16:53:13.984,57832,10600,7908,29374,58532
2025-05-27 16:53:13.996,57826,10598,7907,29362,58555
2025-05-27 16:53:14.003,57828,10599,7901,29365,58539
2025-05-27 16:53:14.033,57805,10602,7928,29378,58542
2025-05-27 16:53:14.034,57804,10600,7920,29357,58539
2025-05-27 16:53:14.037,57787,10614,7919,29361,58555
2025-05-27 16:53:14.045,57787,10603,7923,29370,58549
2025-05-27 16:53:14.056,57767,10603,7905,29368,58542
2025-05-27 16:53:14.064,57765,10612,7906,29370,58550
2025-05-27 16:53:14.075,57759,10610,7917,29374,58537
2025-05-27 16:53:14.102,57769,10604,7916,29384,58545
2025-05-27 16:53:14.104,57737,10618,7915,29383,58552
2025-05-27 16:53:14.106,57750,10605,7902,29370,58552
2025-05-27 16:53:14.116,57737,10601,7919,29366,58531
2025-05-27 16:53:14.123,57732,10605,7915,29362,58541
2025-05-27 16:53:14.137,57731,10602,7920,29368,58544
2025-05-27 16:53:14.143,57729,10600,7928,29378,58512
2025-05-27 16:53:14.177,57756,10620,7909,29366,58573
2025-05-27 16:53:14.179,57749,10623,7909,29361,58526
2025-05-27 16:53:14.181,57764,10616,7934,29363,58524
2025-05-27 16:53:14.184,57751,10623,7915,29364,58526
2025-05-27 16:53:14.196,57745,10605,7925,29370,58519
2025-05-27 16:53:14.204,57759,10620,7921,29360,58525
2025-05-27 16:53:14.216,57764,10609,7935,29371,58486
2025-05-27 16:53:14.225,57749,10608,7920,29328,58528
2025-05-27 16:53:14.255,57758,10614,7942,29357,58462
2025-05-27 16:53:14.257,57755,10617,7923,29349,58512
2025-05-27 16:53:14.259,57770,10614,7930,29351,58502
2025-05-27 16:53:14.264,57748,10614,7918,29335,58505
2025-05-27 16:53:14.276,57761,10613,7945,29344,58507
2025-05-27 16:53:14.289,57769,10619,7938,29342,58494
2025-05-27 16:53:14.296,57796,10621,7943,29345,58487
2025-05-27 16:53:14.334,57810,10624,7949,29338,58494
2025-05-27 16:53:14.337,57804,10630,7932,29345,58494
2025-05-27 16:53:14.339,57831,10642,7924,29338,58481
2025-05-27 16:53:14.341,57843,10621,7928,29339,58490
2025-05-27 16:53:14.347,57845,10634,7943,29342,58483
2025-05-27 16:53:14.356,57853,10616,7931,29327,58467
2025-05-27 16:53:14.368,57872,10629,7933,29327,58460
2025-05-27 16:53:14.376,57866,10625,7935,29331,58452
2025-05-27 16:53:14.406,57876,10613,7937,29322,58479
2025-05-27 16:53:14.408,57864,10616,7929,29309,58462
2025-05-27 16:53:14.410,57870,10615,7926,29322,58463
2025-05-27 16:53:14.415,57880,10595,7933,29335,58459
2025-05-27 16:53:14.427,57870,10621,7925,29323,58470
2025-05-27 16:53:14.436,57889,10621,7930,29315,58465
2025-05-27 16:53:14.447,57889,10599,7908,29332,58474
2025-05-27 16:53:14.478,57879,10602,7918,29324,58460
2025-05-27 16:53:14.479,57895,10615,7908,29330,58459
2025-05-27 16:53:14.481,57873,10596,7915,29325,58472
2025-05-27 16:53:14.487,57841,10618,7909,29331,58466
2025-05-27 16:53:14.495,57853,10610,7906,29327,58473
2025-05-27 16:53:14.508,57842,10615,7910,29308,58477
2025-05-27 16:53:14.516,57827,10611,7909,29341,58488
2025-05-27 16:53:14.551,57803,10606,7918,29336,58512
2025-05-27 16:53:14.553,57780,10628,7918,29344,58527
2025-05-27 16:53:14.555,57759,10607,7919,29343,58549
2025-05-27 16:53:14.557,57735,10605,7921,29365,58559
2025-05-27 16:53:14.567,57699,10606,7925,29391,58591
2025-05-27 16:53:14.581,57655,10611,7927,29379,58617
2025-05-27 16:53:14.588,57638,10634,7917,29392,58625
2025-05-27 16:53:14.599,57625,10634,7925,29397,58656
2025-05-27 16:53:14.625,57597,10625,7931,29402,58676
2025-05-27 16:53:14.627,57584,10613,7921,29411,58689
2025-05-27 16:53:14.629,57583,10624,7926,29400,58679
2025-05-27 16:53:14.639,57578,10607,7905,29400,58682
2025-05-27 16:53:14.648,57580,10605,7904,29398,58671
2025-05-27 16:53:14.661,57566,10598,7898,29409,58652
2025-05-27 16:53:14.667,57583,10598,7904,29386,58665
2025-05-27 16:53:14.699,57570,10581,7902,29391,58648
2025-05-27 16:53:14.701,57565,10590,7891,29400,58631
2025-05-27 16:53:14.704,57580,10592,7897,29390,58637
2025-05-27 16:53:14.708,57587,10591,7895,29395,58635
2025-05-27 16:53:14.720,57564,10593,7883,29377,58599
2025-05-27 16:53:14.728,57569,10593,7894,29373,58609
2025-05-27 16:53:14.739,57550,10581,7895,29370,58612
2025-05-27 16:53:14.771,57535,10578,7883,29382,58620
2025-05-27 16:53:14.772,57530,10573,7871,29389,58633
2025-05-27 16:53:14.774,57505,10591,7896,29380,58616
2025-05-27 16:53:14.779,57533,10587,7893,29368,58628
2025-05-27 16:53:14.787,57502,10573,7886,29394,58634
2025-05-27 16:53:14.800,57508,10582,7899,29394,58634
2025-05-27 16:53:14.808,57489,10581,7886,29380,58634
2025-05-27 16:53:14.819,57485,10586,7884,29393,58647
2025-05-27 16:53:14.846,57475,10588,7878,29397,58622
2025-05-27 16:53:14.848,57464,10577,7892,29400,58643
2025-05-27 16:53:14.850,57478,10590,7882,29393,58637
2025-05-27 16:53:14.861,57445,10587,7892,29397,58634
2025-05-27 16:53:14.872,57438,10592,7891,29403,58662
2025-05-27 16:53:14.879,57431,10588,7891,29404,58651
2025-05-27 16:53:14.892,57437,10589,7894,29405,58649
2025-05-27 16:53:14.917,57426,10599,7890,29413,58656
2025-05-27 16:53:14.919,57414,10593,7886,29411,58659
2025-05-27 16:53:14.921,57416,10600,7890,29401,58667
2025-05-27 16:53:14.932,57419,10592,7895,29409,58653
2025-05-27 16:53:14.939,57416,10617,7902,29387,58658
2025-05-27 16:53:14.952,57436,10599,7895,29410,58657
2025-05-27 16:53:14.959,57414,10606,7895,29402,58651
2025-05-27 16:53:14.992,57424,10597,7895,29419,58661
2025-05-27 16:53:14.994,57419,10607,7880,29392,58656
2025-05-27 16:53:14.995,57424,10590,7885,29404,58655
2025-05-27 16:53:15.004,57420,10601,7904,29407,58666
2025-05-27 16:53:15.006,57420,10601,7904,29407,58666
2025-05-27 16:53:15.012,57416,10616,7891,29398,58651
2025-05-27 16:53:15.020,57425,10607,7911,29401,58637
2025-05-27 16:53:15.032,57425,10610,7900,29394,58638
2025-05-27 16:53:15.039,57413,10618,7894,29397,58641
2025-05-27 16:53:15.066,57415,10624,7903,29390,58634
2025-05-27 16:53:15.068,57421,10624,7902,29387,58643
2025-05-27 16:53:15.071,57421,10632,7900,29385,58638
2025-05-27 16:53:15.080,57412,10632,7906,29385,58643
2025-05-27 16:53:15.091,57434,10632,7899,29392,58644
2025-05-27 16:53:15.100,57434,10633,7916,29399,58637
2025-05-27 16:53:15.111,57454,10632,7915,29389,58630
2025-05-27 16:53:15.137,57462,10641,7913,29387,58635
2025-05-27 16:53:15.139,57459,10627,7914,29388,58629
2025-05-27 16:53:15.140,57469,10642,7917,29381,58629
2025-05-27 16:53:15.151,57481,10654,7928,29387,58644
2025-05-27 16:53:15.164,57486,10638,7914,29387,58610
2025-05-27 16:53:15.172,57497,10642,7917,29367,58625
2025-05-27 16:53:15.183,57487,10646,7916,29364,58583
2025-05-27 16:53:15.205,57503,10634,7917,29368,58599
2025-05-27 16:53:15.207,57488,10636,7915,29348,58613
2025-05-27 16:53:15.211,57501,10626,7913,29359,58585
2025-05-27 16:53:15.223,57491,10647,7903,29363,58599
2025-05-27 16:53:15.232,57494,10638,7915,29369,58585
2025-05-27 16:53:15.244,57498,10622,7915,29366,58574
2025-05-27 16:53:15.251,57481,10622,7910,29363,58587
2025-05-27 16:53:15.275,57456,10618,7911,29365,58586
2025-05-27 16:53:15.276,57452,10627,7907,29372,58601
2025-05-27 16:53:15.283,57453,10602,7891,29381,58599
2025-05-27 16:53:15.291,57434,10621,7892,29376,58594
2025-05-27 16:53:15.303,57444,10621,7900,29376,58566
2025-05-27 16:53:15.311,57445,10615,7897,29382,58595
2025-05-27 16:53:15.345,57413,10613,7912,29382,58614
2025-05-27 16:53:15.346,57430,10616,7888,29371,58608
2025-05-27 16:53:15.348,57414,10589,7900,29378,58596
2025-05-27 16:53:15.351,57406,10609,7885,29375,58594
2025-05-27 16:53:15.364,57414,10604,7902,29383,58610
2025-05-27 16:53:15.371,57419,10607,7887,29389,58608
2025-05-27 16:53:15.383,57406,10620,7889,29383,58609
2025-05-27 16:53:15.391,57425,10613,7899,29383,58602
2025-05-27 16:53:15.418,57410,10626,7907,29371,58617
2025-05-27 16:53:15.420,57420,10604,7903,29384,58611
2025-05-27 16:53:15.424,57419,10614,7893,29359,58616
2025-05-27 16:53:15.431,57416,10591,7890,29370,58594
2025-05-27 16:53:15.444,57427,10608,7899,29373,58605
2025-05-27 16:53:15.456,57408,10609,7903,29346,58614
2025-05-27 16:53:15.464,57424,10621,7894,29368,58603
2025-05-27 16:53:15.486,57380,10623,7901,29376,58627
2025-05-27 16:53:15.488,57397,10606,7900,29391,58618
2025-05-27 16:53:15.495,57401,10614,7894,29370,58606
2025-05-27 16:53:15.503,57387,10604,7908,29364,58595
2025-05-27 16:53:15.515,57378,10600,7895,29374,58632
2025-05-27 16:53:15.523,57373,10615,7894,29367,58615
2025-05-27 16:53:15.535,57363,10607,7898,29373,58624
2025-05-27 16:53:15.557,57379,10607,7890,29377,58619
2025-05-27 16:53:15.558,57376,10620,7889,29383,58630
2025-05-27 16:53:15.564,57368,10618,7910,29371,58641
2025-05-27 16:53:15.575,57384,10635,7901,29368,58624
2025-05-27 16:53:15.584,57366,10616,7902,29388,58622
2025-05-27 16:53:15.595,57379,10614,7903,29367,58612
2025-05-27 16:53:15.604,57369,10609,7899,29375,58609
2025-05-27 16:53:15.627,57351,10620,7901,29380,58623
2025-05-27 16:53:15.628,57365,10622,7901,29374,58625
2025-05-27 16:53:15.635,57349,10624,7902,29371,58625
2025-05-27 16:53:15.644,57355,10618,7897,29380,58633
2025-05-27 16:53:15.655,57321,10623,7902,29385,58646
2025-05-27 16:53:15.664,57337,10626,7913,29375,58624
2025-05-27 16:53:15.675,57336,10620,7892,29371,58620
2025-05-27 16:53:15.700,57298,10616,7893,29373,58632
2025-05-27 16:53:15.702,57297,10629,7897,29376,58635
2025-05-27 16:53:15.704,57254,10626,7900,29378,58634
2025-05-27 16:53:15.716,57244,10617,7901,29366,58644
2025-05-27 16:53:15.724,57188,10603,7905,29381,58642
2025-05-27 16:53:15.736,57190,10604,7904,29396,58645
2025-05-27 16:53:15.747,57158,10608,7897,29402,58649
2025-05-27 16:53:15.771,57149,10628,7893,29407,58663
2025-05-27 16:53:15.772,57142,10633,7897,29407,58668
2025-05-27 16:53:15.776,57122,10629,7899,29420,58662
2025-05-27 16:53:15.787,57115,10622,7891,29405,58686
2025-05-27 16:53:15.795,57112,10624,7915,29411,58694
2025-05-27 16:53:15.807,57126,10638,7897,29424,58707
2025-05-27 16:53:15.815,57119,10646,7903,29415,58719
2025-05-27 16:53:15.840,57121,10644,7911,29418,58715
2025-05-27 16:53:15.841,57107,10645,7908,29422,58726
2025-05-27 16:53:15.847,57104,10654,7917,29423,58722
2025-05-27 16:53:15.855,57100,10655,7910,29412,58725
2025-05-27 16:53:15.867,57108,10639,7905,29430,58730
2025-05-27 16:53:15.875,57112,10647,7894,29408,58718
2025-05-27 16:53:15.886,57097,10635,7898,29406,58721
2025-05-27 16:53:15.930,57094,10641,7907,29410,58714
2025-05-27 16:53:15.931,57076,10647,7906,29424,58747
2025-05-27 16:53:15.933,57112,10642,7904,29427,58723
2025-05-27 16:53:15.934,57093,10625,7905,29408,58705
2025-05-27 16:53:15.935,57091,10642,7905,29433,58722
2025-05-27 16:53:15.947,57077,10643,7891,29417,58694
2025-05-27 16:53:15.954,57071,10628,7892,29406,58713
2025-05-27 16:53:15.976,57081,10619,7897,29415,58718
2025-05-27 16:53:15.977,57067,10606,7880,29431,58714
2025-05-27 16:53:15.987,57060,10630,7888,29405,58711
2025-05-27 16:53:15.995,57061,10611,7895,29424,58711
2025-05-27 16:53:16.008,57070,10621,7885,29436,58710
2025-05-27 16:53:16.015,57069,10598,7891,29436,58723
2025-05-27 16:53:16.046,57058,10624,7870,29401,58714
2025-05-27 16:53:16.048,57069,10623,7881,29412,58703
2025-05-27 16:53:16.049,57065,10606,7879,29445,58729
2025-05-27 16:53:16.061,57063,10595,7868,29403,58703
2025-05-27 16:53:16.067,57072,10603,7865,29416,58706
2025-05-27 16:53:16.080,57075,10594,7881,29402,58720
2025-05-27 16:53:16.088,57072,10615,7882,29418,58702
2025-05-27 16:53:16.118,57074,10595,7871,29420,58709
2025-05-27 16:53:16.121,57067,10596,7887,29403,58706
2025-05-27 16:53:16.122,57058,10600,7887,29409,58711
2025-05-27 16:53:16.128,57060,10598,7872,29409,58721
2025-05-27 16:53:16.140,57075,10605,7880,29402,58693
2025-05-27 16:53:16.148,57078,10578,7847,29413,58698
2025-05-27 16:53:16.160,57072,10600,7880,29406,58709
2025-05-27 16:53:16.167,57074,10602,7883,29395,58690
2025-05-27 16:53:16.194,57068,10593,7859,29409,58700
2025-05-27 16:53:16.197,57082,10607,7859,29399,58675
2025-05-27 16:53:16.199,57072,10593,7882,29394,58700
2025-05-27 16:53:16.211,57066,10603,7874,29381,58681
2025-05-27 16:53:16.213,57066,10603,7874,29381,58681
2025-05-27 16:53:16.220,57097,10595,7867,29383,58682
2025-05-27 16:53:16.228,57096,10593,7883,29387,58672
2025-05-27 16:53:16.239,57085,10594,7881,29382,58678
2025-05-27 16:53:16.268,57102,10585,7874,29385,58669
2025-05-27 16:53:16.270,57097,10609,7873,29380,58669
2025-05-27 16:53:16.273,57101,10615,7864,29379,58669
2025-05-27 16:53:16.279,57129,10598,7874,29383,58680
2025-05-27 16:53:16.287,57107,10597,7867,29373,58663
2025-05-27 16:53:16.299,57116,10606,7885,29386,58668
2025-05-27 16:53:16.308,57117,10593,7897,29370,58658
2025-05-27 16:53:16.338,57122,10586,7886,29373,58661
2025-05-27 16:53:16.340,57108,10626,7858,29377,58666
2025-05-27 16:53:16.341,57117,10583,7884,29370,58658
2025-05-27 16:53:16.352,57128,10597,7867,29379,58657
2025-05-27 16:53:16.359,57136,10605,7885,29363,58656
2025-05-27 16:53:16.372,57141,10643,7865,29352,58647
2025-05-27 16:53:16.379,57144,10600,7880,29366,58629
2025-05-27 16:53:16.407,57139,10623,7885,29360,58665
2025-05-27 16:53:16.409,57147,10597,7881,29346,58648
2025-05-27 16:53:16.411,57121,10632,7887,29359,58642
2025-05-27 16:53:16.419,57120,10617,7891,29357,58645
2025-05-27 16:53:16.431,57134,10614,7890,29351,58653
2025-05-27 16:53:16.440,57116,10617,7879,29358,58651
2025-05-27 16:53:16.451,57134,10634,7880,29362,58671
2025-05-27 16:53:16.475,57151,10616,7893,29355,58664
2025-05-27 16:53:16.477,57145,10617,7897,29365,58639
2025-05-27 16:53:16.479,57160,10647,7894,29362,58629
2025-05-27 16:53:16.491,57150,10614,7894,29343,58621
2025-05-27 16:53:16.499,57146,10643,7893,29360,58630
2025-05-27 16:53:16.511,57163,10630,7885,29357,58624
2025-05-27 16:53:16.520,57166,10632,7910,29355,58633
2025-05-27 16:53:16.547,57168,10653,7915,29354,58624
2025-05-27 16:53:16.549,57169,10642,7902,29361,58623
2025-05-27 16:53:16.551,57163,10632,7888,29349,58632
2025-05-27 16:53:16.560,57151,10640,7893,29364,58642
2025-05-27 16:53:16.571,57149,10625,7902,29333,58621
2025-05-27 16:53:16.579,57165,10650,7907,29348,58621
2025-05-27 16:53:16.591,57140,10643,7913,29363,58621
2025-05-27 16:53:16.616,57132,10643,7898,29348,58615
2025-05-27 16:53:16.617,57132,10624,7891,29350,58613
2025-05-27 16:53:16.619,57117,10629,7881,29355,58618
2025-05-27 16:53:16.632,57115,10617,7885,29338,58608
2025-05-27 16:53:16.639,57124,10617,7866,29341,58612
2025-05-27 16:53:16.651,57119,10617,7878,29342,58607
2025-05-27 16:53:16.663,57120,10613,7886,29334,58599
2025-05-27 16:53:16.685,57120,10612,7888,29351,58606
2025-05-27 16:53:16.687,57098,10597,7867,29343,58594
2025-05-27 16:53:16.691,57100,10610,7872,29349,58590
2025-05-27 16:53:16.704,57106,10603,7871,29338,58592
2025-05-27 16:53:16.712,57115,10602,7868,29346,58581
2025-05-27 16:53:16.723,57097,10593,7869,29326,58594
2025-05-27 16:53:16.731,57115,10596,7866,29339,58579
2025-05-27 16:53:16.755,57134,10598,7867,29337,58578
2025-05-27 16:53:16.756,57109,10602,7847,29331,58586
2025-05-27 16:53:16.763,57096,10595,7846,29333,58582
2025-05-27 16:53:16.771,57103,10587,7854,29330,58572
2025-05-27 16:53:16.784,57113,10581,7847,29322,58572
2025-05-27 16:53:16.791,57095,10597,7861,29315,58573
2025-05-27 16:53:16.803,57098,10570,7847,29331,58586
2025-05-27 16:53:16.824,57114,10575,7842,29322,58569
2025-05-27 16:53:16.826,57099,10573,7848,29310,58565
2025-05-27 16:53:16.831,57100,10586,7852,29316,58540
2025-05-27 16:53:16.843,57105,10591,7838,29313,58552
2025-05-27 16:53:16.851,57103,10580,7841,29316,58561
2025-05-27 16:53:16.863,57103,10591,7845,29302,58584
2025-05-27 16:53:16.872,57114,10574,7850,29330,58540
2025-05-27 16:53:16.895,57101,10584,7848,29300,58553
2025-05-27 16:53:16.897,57110,10570,7821,29315,58548
2025-05-27 16:53:16.903,57112,10580,7852,29293,58561
2025-05-27 16:53:16.911,57096,10572,7846,29327,58546
2025-05-27 16:53:16.923,57116,10574,7852,29294,58546
2025-05-27 16:53:16.932,57114,10574,7831,29303,58548
2025-05-27 16:53:16.944,57118,10590,7838,29309,58536
2025-05-27 16:53:16.969,57110,10584,7842,29303,58542
2025-05-27 16:53:16.971,57093,10557,7839,29305,58536
2025-05-27 16:53:16.975,57105,10570,7832,29291,58534
2025-05-27 16:53:16.984,57111,10560,7842,29315,58540
2025-05-27 16:53:16.995,57099,10564,7830,29306,58535
2025-05-27 16:53:17.003,57112,10568,7835,29295,58525
2025-05-27 16:53:17.015,57101,10567,7841,29294,58530
2025-05-27 16:53:17.039,57117,10562,7833,29301,58501
2025-05-27 16:53:17.041,57107,10581,7838,29301,58517
2025-05-27 16:53:17.043,57105,10584,7822,29287,58532
2025-05-27 16:53:17.055,57111,10567,7830,29291,58527
2025-05-27 16:53:17.063,57102,10572,7850,29301,58530
2025-05-27 16:53:17.075,57095,10579,7839,29293,58528
2025-05-27 16:53:17.083,57108,10593,7838,29278,58508
2025-05-27 16:53:17.112,57092,10570,7866,29304,58526
2025-05-27 16:53:17.113,57109,10562,7823,29275,58528
2025-05-27 16:53:17.115,57124,10581,7852,29287,58536
2025-05-27 16:53:17.123,57101,10587,7836,29308,58517
2025-05-27 16:53:17.135,57095,10572,7841,29295,58525
2025-05-27 16:53:17.144,57104,10575,7850,29286,58538
2025-05-27 16:53:17.155,57103,10603,7844,29300,58533
2025-05-27 16:53:17.184,57101,10585,7843,29282,58501
2025-05-27 16:53:17.186,57080,10576,7855,29273,58513
2025-05-27 16:53:17.188,57075,10591,7839,29290,58522
2025-05-27 16:53:17.196,57091,10600,7845,29306,58555
2025-05-27 16:53:17.203,57080,10597,7854,29312,58547
2025-05-27 16:53:17.215,57076,10593,7844,29272,58529
2025-05-27 16:53:17.223,57089,10590,7844,29298,58507
2025-05-27 16:53:17.258,57082,10583,7843,29290,58524
2025-05-27 16:53:17.260,57064,10594,7841,29294,58546
2025-05-27 16:53:17.261,57076,10591,7844,29284,58505
2025-05-27 16:53:17.268,57071,10606,7847,29282,58503
2025-05-27 16:53:17.275,57058,10588,7846,29278,58496
2025-05-27 16:53:17.287,57077,10594,7858,29290,58516
2025-05-27 16:53:17.296,57065,10600,7851,29294,58517
2025-05-27 16:53:17.334,57064,10620,7845,29284,58501
2025-05-27 16:53:17.336,57075,10594,7859,29292,58511
2025-05-27 16:53:17.338,57069,10602,7847,29282,58490
2025-05-27 16:53:17.339,57091,10593,7847,29272,58501
2025-05-27 16:53:17.348,57051,10587,7834,29278,58512
2025-05-27 16:53:17.355,57040,10589,7845,29260,58485
2025-05-27 16:53:17.368,57058,10580,7838,29256,58497
2025-05-27 16:53:17.376,57041,10576,7837,29284,58475
2025-05-27 16:53:17.403,57050,10569,7826,29264,58481
2025-05-27 16:53:17.405,57057,10578,7832,29289,58479
2025-05-27 16:53:17.407,57039,10571,7811,29273,58484
2025-05-27 16:53:17.419,57021,10567,7817,29281,58478
2025-05-27 16:53:17.420,57021,10567,7817,29281,58478
2025-05-27 16:53:17.427,57034,10558,7814,29263,58485
2025-05-27 16:53:17.436,57030,10550,7813,29286,58465
2025-05-27 16:53:17.446,57030,10544,7799,29268,58476
2025-05-27 16:53:17.470,57021,10554,7811,29256,58480
2025-05-27 16:53:17.472,57019,10571,7813,29277,58467
2025-05-27 16:53:17.475,57004,10551,7793,29267,58471
2025-05-27 16:53:17.487,57027,10548,7800,29269,58459
2025-05-27 16:53:17.495,57043,10557,7805,29270,58457
2025-05-27 16:53:17.507,57030,10543,7800,29237,58458
2025-05-27 16:53:17.515,57029,10542,7799,29257,58466
2025-05-27 16:53:17.542,57029,10532,7794,29238,58469
2025-05-27 16:53:17.543,57035,10538,7809,29261,58466
2025-05-27 16:53:17.547,57027,10544,7797,29256,58461
2025-05-27 16:53:17.559,57045,10540,7796,29250,58452
2025-05-27 16:53:17.567,57032,10538,7800,29246,58460
2025-05-27 16:53:17.579,57068,10536,7790,29253,58450
2025-05-27 16:53:17.587,57027,10551,7787,29229,58456
2025-05-27 16:53:17.613,57048,10538,7806,29247,58459
2025-05-27 16:53:17.614,57060,10531,7795,29239,58458
2025-05-27 16:53:17.619,57033,10549,7785,29244,58460
2025-05-27 16:53:17.627,57068,10537,7796,29251,58451
2025-05-27 16:53:17.640,57024,10549,7788,29235,58425
2025-05-27 16:53:17.646,57068,10550,7778,29244,58427
2025-05-27 16:53:17.659,57035,10527,7789,29239,58445
2025-05-27 16:53:17.680,57085,10544,7800,29233,58442
2025-05-27 16:53:17.682,57045,10552,7781,29235,58438
2025-05-27 16:53:17.687,57037,10539,7775,29233,58439
2025-05-27 16:53:17.699,57057,10533,7803,29266,58433
2025-05-27 16:53:17.707,57031,10537,7793,29230,58428
2025-05-27 16:53:17.720,57041,10530,7790,29239,58423
2025-05-27 16:53:17.727,57021,10535,7793,29240,58424
2025-05-27 16:53:17.750,57031,10539,7797,29241,58427
2025-05-27 16:53:17.751,57028,10548,7787,29235,58425
2025-05-27 16:53:17.759,57032,10526,7793,29219,58421
2025-05-27 16:53:17.767,57046,10531,7800,29224,58412
2025-05-27 16:53:17.782,57027,10530,7780,29230,58413
2025-05-27 16:53:17.787,57040,10532,7785,29241,58426
2025-05-27 16:53:17.798,57043,10541,7784,29237,58435
2025-05-27 16:53:17.819,57029,10513,7775,29234,58427
2025-05-27 16:53:17.820,57025,10551,7803,29227,58442
2025-05-27 16:53:17.826,56999,10558,7794,29233,58435
2025-05-27 16:53:17.838,57000,10564,7790,29229,58430
