Timestamp,PPG1,PPG2,PPG3,PPG4,PPG5
2025-04-22 18:15:18.681,167976,39379,38939,129656,146689
2025-04-22 18:15:18.718,167986,39361,38932,129663,146698
2025-04-22 18:15:18.720,167982,39344,38934,129663,146682
2025-04-22 18:15:18.721,167982,39341,38932,129662,146706
2025-04-22 18:15:18.721,167998,39330,38917,129673,146701
2025-04-22 18:15:18.723,167993,39317,38917,129675,146694
2025-04-22 18:15:18.724,168019,39324,38918,129657,146705
2025-04-22 18:15:18.726,168022,39311,38915,129675,146700
2025-04-22 18:15:18.727,168023,39302,38916,129675,146695
2025-04-22 18:15:18.728,168009,39307,38915,129657,146686
2025-04-22 18:15:18.729,168024,39305,38903,129669,146696
2025-04-22 18:15:18.730,168014,39294,38899,129681,146693
2025-04-22 18:15:18.732,168017,39288,38900,129668,146682
2025-04-22 18:15:18.733,168008,39276,38898,129667,146686
2025-04-22 18:15:18.735,168005,39284,38893,129665,146677
2025-04-22 18:15:18.736,168027,39270,38895,129690,146692
2025-04-22 18:15:18.740,168019,39265,38893,129664,146692
2025-04-22 18:15:18.753,168024,39269,38891,129675,146722
2025-04-22 18:15:18.760,168033,39275,38893,129676,146697
2025-04-22 18:15:19.151,168048,39263,38893,129677,146720
2025-04-22 18:15:19.153,168034,39266,38901,129697,146710
2025-04-22 18:15:19.154,168057,39275,38892,129688,146719
2025-04-22 18:15:19.155,168042,39274,38893,129701,146716
2025-04-22 18:15:19.156,168059,39274,38899,129685,146722
2025-04-22 18:15:19.157,168068,39279,38896,129689,146711
2025-04-22 18:15:19.159,168061,39280,38899,129705,146735
2025-04-22 18:15:19.160,168054,39283,38894,129689,146733
2025-04-22 18:15:19.162,168050,39278,38907,129689,146742
2025-04-22 18:15:19.163,168067,39292,38901,129701,146722
2025-04-22 18:15:19.164,168045,39294,38906,129716,146729
2025-04-22 18:15:19.165,168049,39291,38901,129695,146720
2025-04-22 18:15:19.166,168063,39301,38895,129707,146757
2025-04-22 18:15:19.167,168060,39300,38900,129701,146735
2025-04-22 18:15:19.168,168051,39304,38903,129703,146738
2025-04-22 18:15:19.170,168063,39309,38909,129708,146744
2025-04-22 18:15:19.172,168059,39313,38907,129708,146759
2025-04-22 18:15:19.173,168066,39323,38916,129717,146747
2025-04-22 18:15:19.175,168085,39322,38913,129712,146770
2025-04-22 18:15:19.177,168074,39326,38913,129707,146773
2025-04-22 18:15:19.179,168074,39334,38926,129716,146765
2025-04-22 18:15:19.180,168083,39343,38922,129712,146759
2025-04-22 18:15:19.181,168077,39339,38937,129715,146765
2025-04-22 18:15:19.182,168087,39345,38930,129716,146768
2025-04-22 18:15:19.183,168088,39364,38934,129710,146771
2025-04-22 18:15:19.183,168090,39367,38935,129719,146771
2025-04-22 18:15:19.184,168082,39378,38935,129713,146767
2025-04-22 18:15:19.185,168107,39378,38946,129716,146758
2025-04-22 18:15:19.186,168109,39394,38954,129724,146787
2025-04-22 18:15:19.187,168111,39401,38952,129729,146800
2025-04-22 18:15:19.188,168113,39404,38956,129720,146794
2025-04-22 18:15:19.189,168111,39408,38969,129742,146794
2025-04-22 18:15:19.191,168121,39428,38971,129741,146804
2025-04-22 18:15:19.192,168116,39424,38980,129736,146800
2025-04-22 18:15:19.193,168126,39439,38967,129738,146797
2025-04-22 18:15:19.194,168117,39445,38984,129725,146804
2025-04-22 18:15:19.194,168117,39449,38992,129741,146800
2025-04-22 18:15:19.195,168134,39457,38985,129731,146819
2025-04-22 18:15:19.196,168125,39474,39001,129730,146817
2025-04-22 18:15:19.197,168114,39479,38997,129748,146808
2025-04-22 18:15:19.197,168130,39491,39005,129749,146814
2025-04-22 18:15:19.214,168138,39502,39012,129751,146822
2025-04-22 18:15:19.217,168143,39508,39017,129747,146834
2025-04-22 18:15:19.219,168138,39518,39023,129743,146821
2025-04-22 18:15:19.221,168139,39527,39018,129750,146829
2025-04-22 18:15:19.223,168143,39538,39029,129735,146842
2025-04-22 18:15:19.236,168146,39542,39037,129752,146828
2025-04-22 18:15:19.244,168152,39559,39040,129760,146843
2025-04-22 18:15:19.256,168156,39563,39045,129753,146824
2025-04-22 18:15:19.277,168176,39580,39045,129750,146841
2025-04-22 18:15:19.278,168142,39580,39050,129751,146838
2025-04-22 18:15:19.284,168163,39599,39064,129747,146833
2025-04-22 18:15:19.296,168158,39596,39061,129769,146834
2025-04-22 18:15:19.304,168166,39612,39063,129760,146846
2025-04-22 18:15:19.316,168175,39622,39072,129754,146850
2025-04-22 18:15:19.324,168176,39637,39079,129764,146853
2025-04-22 18:15:19.341,168162,39642,39084,129760,146863
2025-04-22 18:15:19.343,168178,39653,39089,129765,146859
2025-04-22 18:15:19.356,168188,39662,39092,129764,146872
2025-04-22 18:15:19.363,168189,39675,39097,129761,146863
2025-04-22 18:15:19.376,168177,39683,39112,129766,146879
2025-04-22 18:15:19.384,168199,39700,39112,129755,146864
2025-04-22 18:15:19.403,168214,39709,39124,129783,146876
2025-04-22 18:15:19.405,168202,39720,39132,129769,146889
2025-04-22 18:15:19.416,168198,39732,39138,129793,146894
2025-04-22 18:15:19.425,168202,39741,39141,129783,146893
2025-04-22 18:15:19.436,168212,39752,39153,129790,146904
2025-04-22 18:15:19.443,168218,39756,39151,129799,146902
2025-04-22 18:15:19.467,168219,39777,39165,129798,146913
2025-04-22 18:15:19.468,168207,39781,39172,129786,146908
2025-04-22 18:15:19.475,168213,39808,39172,129796,146911
2025-04-22 18:15:19.488,168210,39812,39170,129794,146922
2025-04-22 18:15:19.495,168205,39811,39185,129791,146922
2025-04-22 18:15:19.507,168181,39810,39184,129781,146907
2025-04-22 18:15:19.515,168174,39801,39174,129787,146912
2025-04-22 18:15:19.531,168147,39778,39175,129769,146890
2025-04-22 18:15:19.535,168117,39767,39170,129781,146864
2025-04-22 18:15:19.547,168089,39744,39167,129768,146851
2025-04-22 18:15:19.556,168076,39716,39155,129746,146824
2025-04-22 18:15:19.568,168069,39697,39147,129744,146813
2025-04-22 18:15:19.572,168069,39697,39147,129744,146813
2025-04-22 18:15:19.576,168062,39660,39130,129729,146798
2025-04-22 18:15:19.593,168060,39643,39128,129727,146776
2025-04-22 18:15:19.595,168063,39636,39117,129736,146806
2025-04-22 18:15:19.608,168072,39620,39115,129731,146796
2025-04-22 18:15:19.615,168070,39604,39110,129734,146794
2025-04-22 18:15:19.628,168066,39617,39112,129727,146767
2025-04-22 18:15:19.635,168085,39604,39106,129726,146794
2025-04-22 18:15:19.656,168072,39596,39105,129726,146810
2025-04-22 18:15:19.658,168094,39591,39101,129731,146810
2025-04-22 18:15:19.668,168061,39592,39102,129751,146793
2025-04-22 18:15:19.676,168059,39581,39093,129730,146787
2025-04-22 18:15:19.687,168073,39586,39085,129728,146791
2025-04-22 18:15:19.696,168047,39573,39092,129731,146805
2025-04-22 18:15:19.720,168062,39561,39083,129731,146792
2025-04-22 18:15:19.721,168061,39563,39082,129720,146783
2025-04-22 18:15:19.727,168067,39550,39068,129726,146777
2025-04-22 18:15:19.741,168050,39545,39073,129730,146786
2025-04-22 18:15:19.748,168067,39538,39071,129732,146789
2025-04-22 18:15:19.759,168066,39542,39071,129713,146799
2025-04-22 18:15:19.767,168062,39537,39067,129721,146795
2025-04-22 18:15:19.784,168063,39543,39069,129728,146775
2025-04-22 18:15:19.788,168065,39534,39064,129731,146796
2025-04-22 18:15:19.799,168076,39543,39061,129719,146789
2025-04-22 18:15:19.807,168070,39536,39066,129718,146798
2025-04-22 18:15:19.819,168074,39545,39067,129726,146795
2025-04-22 18:15:19.827,168063,39535,39073,129730,146799
2025-04-22 18:15:19.848,168076,39550,39064,129724,146780
2025-04-22 18:15:19.849,168088,39546,39056,129722,146767
2025-04-22 18:15:19.860,168076,39539,39052,129718,146784
2025-04-22 18:15:19.868,168071,39556,39053,129727,146801
2025-04-22 18:15:19.880,168062,39537,39059,129719,146799
2025-04-22 18:15:19.888,168073,39545,39060,129709,146780
2025-04-22 18:15:19.911,168056,39556,39055,129718,146791
2025-04-22 18:15:19.913,168090,39552,39056,129713,146808
2025-04-22 18:15:19.920,168088,39553,39052,129728,146806
2025-04-22 18:15:19.928,168074,39562,39051,129708,146801
2025-04-22 18:15:19.939,168092,39569,39056,129722,146804
2025-04-22 18:15:19.948,168088,39563,39050,129722,146792
2025-04-22 18:15:19.960,168090,39567,39064,129712,146792
2025-04-22 18:15:19.977,168081,39574,39073,129705,146808
2025-04-22 18:15:19.979,168103,39585,39069,129717,146795
2025-04-22 18:15:19.992,168088,39585,39065,129713,146794
2025-04-22 18:15:20.000,168095,39593,39062,129699,146786
2025-04-22 18:15:20.011,168106,39598,39082,129720,146817
2025-04-22 18:15:20.019,168096,39600,39070,129710,146802
2025-04-22 18:15:20.042,168104,39607,39091,129717,146809
2025-04-22 18:15:20.043,168118,39615,39080,129715,146810
2025-04-22 18:15:20.052,168114,39624,39093,129715,146806
2025-04-22 18:15:20.060,168109,39629,39103,129716,146837
2025-04-22 18:15:20.072,168121,39633,39101,129715,146822
2025-04-22 18:15:20.080,168115,39649,39108,129712,146822
2025-04-22 18:15:20.108,168120,39656,39106,129724,146835
2025-04-22 18:15:20.109,168124,39661,39113,129728,146810
2025-04-22 18:15:20.112,168120,39663,39113,129729,146819
2025-04-22 18:15:20.119,168113,39672,39120,129705,146818
2025-04-22 18:15:20.131,168115,39678,39133,129720,146827
2025-04-22 18:15:20.140,168130,39687,39140,129714,146821
2025-04-22 18:15:20.151,168126,39697,39131,129714,146825
2025-04-22 18:15:20.383,168130,39710,39138,129718,146827
2025-04-22 18:15:20.386,168138,39715,39151,129726,146842
2025-04-22 18:15:20.388,168146,39721,39155,129719,146828
2025-04-22 18:15:20.390,168151,39722,39144,129713,146842
2025-04-22 18:15:20.392,168141,39734,39161,129721,146830
2025-04-22 18:15:20.393,168156,39742,39166,129717,146836
2025-04-22 18:15:20.396,168166,39752,39171,129732,146851
2025-04-22 18:15:20.398,168145,39758,39171,129716,146842
2025-04-22 18:15:20.400,168149,39766,39175,129728,146851
2025-04-22 18:15:20.401,168162,39769,39183,129725,146833
2025-04-22 18:15:20.403,168157,39786,39191,129725,146844
2025-04-22 18:15:20.405,168153,39793,39189,129704,146848
2025-04-22 18:15:20.407,168160,39799,39197,129736,146853
2025-04-22 18:15:20.408,168181,39812,39205,129727,146841
2025-04-22 18:15:20.410,168160,39817,39214,129733,146839
2025-04-22 18:15:20.412,168189,39834,39215,129728,146850
2025-04-22 18:15:20.413,168177,39842,39213,129732,146872
2025-04-22 18:15:20.415,168186,39853,39224,129737,146864
2025-04-22 18:15:20.417,168175,39851,39232,129723,146873
2025-04-22 18:15:20.419,168186,39868,39240,129738,146863
2025-04-22 18:15:20.420,168199,39873,39241,129734,146880
2025-04-22 18:15:20.423,168209,39883,39251,129739,146860
2025-04-22 18:15:20.424,168189,39895,39254,129730,146877
2025-04-22 18:15:20.427,168210,39902,39255,129734,146874
2025-04-22 18:15:20.428,168215,39921,39258,129736,146900
2025-04-22 18:15:20.431,168217,39931,39272,129722,146888
2025-04-22 18:15:20.432,168220,39932,39279,129759,146880
2025-04-22 18:15:21.518,168224,39945,39288,129728,146878
2025-04-22 18:15:21.522,168214,39960,39296,129740,146879
2025-04-22 18:15:21.523,168218,39959,39300,129731,146886
2025-04-22 18:15:21.524,168212,39968,39303,129732,146883
2025-04-22 18:15:21.525,168196,39969,39297,129743,146890
2025-04-22 18:15:21.526,168168,39956,39298,129739,146870
2025-04-22 18:15:21.527,168157,39952,39296,129733,146850
2025-04-22 18:15:21.528,168121,39930,39287,129721,146849
2025-04-22 18:15:21.530,168103,39902,39286,129714,146833
2025-04-22 18:15:21.532,168099,39886,39272,129699,146798
2025-04-22 18:15:21.533,168094,39865,39269,129686,146798
2025-04-22 18:15:21.535,168058,39845,39253,129696,146783
2025-04-22 18:15:21.536,168059,39825,39255,129670,146782
2025-04-22 18:15:21.538,168084,39813,39248,129664,146760
2025-04-22 18:15:21.540,168071,39805,39242,129670,146766
2025-04-22 18:15:21.541,168071,39805,39242,129670,146766
2025-04-22 18:15:21.541,168074,39789,39233,129665,146765
2025-04-22 18:15:21.542,168061,39794,39238,129674,146767
2025-04-22 18:15:21.543,168058,39787,39235,129672,146764
2025-04-22 18:15:21.544,168092,39786,39235,129672,146769
2025-04-22 18:15:21.545,168090,39783,39233,129676,146776
2025-04-22 18:15:21.545,168082,39780,39226,129675,146774
2025-04-22 18:15:21.546,168083,39767,39228,129659,146783
2025-04-22 18:15:21.547,168085,39766,39218,129675,146778
2025-04-22 18:15:21.547,168097,39764,39225,129664,146768
2025-04-22 18:15:21.548,168091,39761,39222,129664,146771
2025-04-22 18:15:21.549,168099,39761,39223,129667,146789
2025-04-22 18:15:21.549,168088,39748,39227,129662,146766
2025-04-22 18:15:21.550,168078,39749,39216,129656,146775
2025-04-22 18:15:21.551,168095,39746,39219,129671,146770
2025-04-22 18:15:21.552,168085,39755,39215,129666,146785
2025-04-22 18:15:21.554,168081,39746,39216,129675,146767
2025-04-22 18:15:21.555,168070,39748,39217,129670,146782
2025-04-22 18:15:21.556,168073,39743,39212,129671,146771
2025-04-22 18:15:21.557,168077,39743,39208,129674,146768
2025-04-22 18:15:21.558,168075,39749,39210,129647,146763
2025-04-22 18:15:21.559,168089,39745,39207,129655,146784
2025-04-22 18:15:21.818,168092,39749,39207,129656,146763
2025-04-22 18:15:21.820,168081,39744,39216,129666,146765
2025-04-22 18:15:21.821,168096,39754,39219,129657,146771
2025-04-22 18:15:21.823,168103,39750,39216,129665,146765
2025-04-22 18:15:21.825,168094,39752,39218,129671,146768
2025-04-22 18:15:21.826,168082,39755,39216,129668,146774
2025-04-22 18:15:21.829,168092,39755,39218,129654,146771
2025-04-22 18:15:21.831,168090,39758,39217,129657,146781
2025-04-22 18:15:21.833,168088,39758,39212,129653,146770
2025-04-22 18:15:21.835,168097,39765,39210,129643,146776
2025-04-22 18:15:21.836,168107,39768,39218,129663,146769
2025-04-22 18:15:21.838,168099,39762,39221,129645,146772
2025-04-22 18:15:21.841,168112,39777,39231,129662,146770
2025-04-22 18:15:21.842,168117,39778,39225,129649,146790
2025-04-22 18:15:21.844,168117,39783,39235,129653,146772
2025-04-22 18:15:21.846,168116,39793,39227,129652,146768
2025-04-22 18:15:21.874,168109,39785,39235,129653,146771
2025-04-22 18:15:21.876,168105,39804,39226,129648,146785
2025-04-22 18:15:21.877,168112,39801,39235,129647,146778
2025-04-22 18:15:21.879,168117,39811,39241,129652,146784
2025-04-22 18:15:21.880,168119,39817,39236,129646,146782
2025-04-22 18:15:21.881,168134,39822,39241,129642,146767
2025-04-22 18:15:21.883,168110,39829,39250,129645,146775
2025-04-22 18:15:21.884,168133,39832,39245,129657,146793
2025-04-22 18:15:21.887,168135,39842,39251,129653,146780
2025-04-22 18:15:21.888,168135,39854,39258,129633,146800
2025-04-22 18:15:21.889,168153,39853,39258,129659,146795
2025-04-22 18:15:21.890,168134,39865,39259,129644,146794
2025-04-22 18:15:21.892,168147,39870,39260,129654,146808
2025-04-22 18:15:21.893,168135,39873,39265,129657,146796
2025-04-22 18:15:21.895,168151,39884,39277,129652,146786
2025-04-22 18:15:21.896,168156,39892,39280,129645,146800
2025-04-22 18:15:21.897,168148,39894,39279,129647,146790
2025-04-22 18:15:21.898,168155,39910,39290,129652,146791
2025-04-22 18:15:21.900,168165,39915,39286,129642,146815
2025-04-22 18:15:21.902,168159,39920,39293,129654,146805
2025-04-22 18:15:21.904,168172,39927,39301,129650,146800
2025-04-22 18:15:21.906,168167,39934,39302,129663,146799
2025-04-22 18:15:21.907,168174,39944,39302,129643,146809
2025-04-22 18:15:21.908,168158,39962,39315,129655,146817
2025-04-22 18:15:21.910,168171,39969,39322,129668,146815
2025-04-22 18:15:21.911,168169,39974,39323,129670,146821
2025-04-22 18:15:21.912,168164,39974,39334,129668,146800
2025-04-22 18:15:21.912,168161,39986,39334,129670,146822
2025-04-22 18:15:21.913,168170,39990,39337,129664,146830
2025-04-22 18:15:21.914,168169,40006,39345,129681,146838
2025-04-22 18:15:21.915,168180,40010,39348,129655,146823
2025-04-22 18:15:21.916,168201,40020,39348,129663,146825
2025-04-22 18:15:21.917,168181,40028,39362,129668,146831
2025-04-22 18:15:21.918,168192,40033,39367,129670,146855
2025-04-22 18:15:21.920,168191,40040,39376,129666,146849
2025-04-22 18:15:21.921,168210,40063,39382,129654,146860
2025-04-22 18:15:21.922,168211,40055,39390,129678,146863
2025-04-22 18:15:21.941,168209,40066,39394,129684,146849
2025-04-22 18:15:21.942,168197,40078,39396,129681,146851
2025-04-22 18:15:21.943,168203,40084,39393,129691,146868
2025-04-22 18:15:21.944,168189,40078,39404,129668,146859
2025-04-22 18:15:21.945,168151,40078,39402,129667,146842
2025-04-22 18:15:21.946,168128,40058,39393,129666,146845
2025-04-22 18:15:21.947,168112,40041,39388,129676,146825
2025-04-22 18:15:21.948,168097,40024,39377,129653,146809
2025-04-22 18:15:21.949,168079,40008,39369,129629,146795
2025-04-22 18:15:21.950,168071,39977,39363,129648,146769
2025-04-22 18:15:21.951,168071,39959,39357,129629,146755
2025-04-22 18:15:21.952,168056,39948,39348,129621,146755
2025-04-22 18:15:21.953,168072,39931,39343,129610,146747
2025-04-22 18:15:21.954,168087,39921,39341,129620,146747
2025-04-22 18:15:21.955,168067,39910,39335,129617,146748
2025-04-22 18:15:21.956,168093,39907,39341,129605,146742
2025-04-22 18:15:21.957,168075,39903,39335,129594,146761
2025-04-22 18:15:21.958,168088,39899,39335,129612,146750
2025-04-22 18:15:21.959,168085,39902,39334,129620,146766
2025-04-22 18:15:21.962,168094,39887,39346,129609,146751
2025-04-22 18:15:21.963,168101,39892,39333,129630,146754
2025-04-22 18:15:21.965,168099,39897,39332,129618,146752
2025-04-22 18:15:21.966,168118,39886,39340,129611,146751
2025-04-22 18:15:21.967,168101,39889,39335,129616,146772
2025-04-22 18:15:21.967,168107,39883,39331,129630,146758
2025-04-22 18:15:21.968,168094,39882,39333,129635,146762
2025-04-22 18:15:21.969,168094,39882,39333,129635,146762
2025-04-22 18:15:21.969,168115,39876,39325,129634,146764
2025-04-22 18:15:21.970,168085,39874,39325,129615,146759
2025-04-22 18:15:21.971,168089,39872,39334,129617,146765
2025-04-22 18:15:21.972,168102,39881,39322,129610,146768
2025-04-22 18:15:21.972,168097,39876,39322,129616,146765
2025-04-22 18:15:21.974,168109,39874,39323,129623,146753
2025-04-22 18:15:21.975,168108,39871,39328,129618,146750
2025-04-22 18:15:21.976,168111,39869,39323,129631,146750
2025-04-22 18:15:21.977,168117,39873,39325,129626,146751
2025-04-22 18:15:21.978,168109,39876,39327,129607,146765
2025-04-22 18:15:21.978,168111,39875,39324,129622,146759
2025-04-22 18:15:21.979,168098,39870,39324,129591,146748
2025-04-22 18:15:21.980,168106,39866,39321,129610,146754
2025-04-22 18:15:21.980,168102,39873,39320,129603,146764
2025-04-22 18:15:21.981,168100,39872,39327,129611,146754
2025-04-22 18:15:21.982,168112,39873,39330,129617,146766
2025-04-22 18:15:21.983,168115,39879,39333,129609,146763
2025-04-22 18:15:21.983,168107,39877,39325,129618,146767
2025-04-22 18:15:21.984,168118,39880,39325,129624,146761
2025-04-22 18:15:21.985,168113,39872,39328,129614,146765
2025-04-22 18:15:21.986,168118,39882,39329,129612,146758
2025-04-22 18:15:21.986,168133,39892,39333,129614,146773
2025-04-22 18:15:21.987,168128,39898,39339,129607,146762
2025-04-22 18:15:21.988,168122,39901,39337,129610,146742
2025-04-22 18:15:21.988,168123,39902,39346,129615,146769
2025-04-22 18:15:21.989,168117,39910,39347,129616,146769
2025-04-22 18:15:22.005,168137,39910,39350,129623,146780
2025-04-22 18:15:22.006,168129,39918,39351,129609,146775
2025-04-22 18:15:22.007,168162,39932,39358,129614,146776
2025-04-22 18:15:22.008,168132,39933,39361,129624,146787
2025-04-22 18:15:22.009,168142,39940,39365,129605,146789
2025-04-22 18:15:22.009,168152,39955,39371,129626,146796
2025-04-22 18:15:22.010,168157,39950,39373,129619,146785
2025-04-22 18:15:22.011,168143,39958,39378,129632,146821
2025-04-22 18:15:22.013,168155,39961,39379,129615,146773
2025-04-22 18:15:22.013,168143,39970,39380,129634,146797
2025-04-22 18:15:22.014,168158,39972,39381,129617,146787
2025-04-22 18:15:22.015,168145,39983,39381,129621,146797
2025-04-22 18:15:22.016,168156,39988,39393,129640,146821
2025-04-22 18:15:22.017,168168,39997,39405,129637,146793
2025-04-22 18:15:22.018,168151,40003,39408,129623,146804
2025-04-22 18:15:22.019,168159,40004,39410,129630,146812
2025-04-22 18:15:22.020,168156,40009,39409,129624,146832
2025-04-22 18:15:22.023,168172,40025,39417,129627,146815
2025-04-22 18:15:22.035,168174,40019,39414,129624,146802
2025-04-22 18:15:22.042,168187,40030,39422,129621,146811
2025-04-22 18:15:22.068,168167,40037,39427,129630,146825
2025-04-22 18:15:22.069,168184,40041,39429,129635,146824
2025-04-22 18:15:22.076,168186,40050,39432,129613,146825
2025-04-22 18:15:22.086,168191,40058,39434,129626,146811
2025-04-22 18:15:22.094,168176,40067,39454,129632,146819
2025-04-22 18:15:22.106,168199,40074,39448,129627,146837
2025-04-22 18:15:22.113,168197,40082,39462,129644,146834
2025-04-22 18:15:22.132,168179,40092,39459,129635,146829
2025-04-22 18:15:22.134,168179,40092,39459,129635,146829
2025-04-22 18:15:22.146,168197,40094,39466,129637,146834
2025-04-22 18:15:22.154,168193,40106,39463,129648,146840
2025-04-22 18:15:22.166,168174,40111,39478,129648,146848
2025-04-22 18:15:22.175,168206,40112,39482,129648,146849
2025-04-22 18:15:22.195,168200,40130,39493,129636,146863
2025-04-22 18:15:22.196,168200,40130,39493,129636,146863
2025-04-22 18:15:22.197,168223,40148,39500,129651,146854
2025-04-22 18:15:22.206,168208,40144,39504,129653,146870
2025-04-22 18:15:22.214,168186,40145,39504,129650,146855
2025-04-22 18:15:22.227,168183,40145,39515,129637,146848
2025-04-22 18:15:22.234,168145,40121,39504,129636,146842
2025-04-22 18:15:22.258,168119,40101,39488,129630,146798
2025-04-22 18:15:22.259,168107,40084,39482,129607,146797
2025-04-22 18:15:22.266,168081,40052,39477,129608,146794
2025-04-22 18:15:22.274,168092,40037,39473,129599,146772
2025-04-22 18:15:22.286,168070,40014,39468,129578,146760
2025-04-22 18:15:22.294,168060,39994,39455,129591,146732
2025-04-22 18:15:22.305,168056,39967,39447,129577,146754
2025-04-22 18:15:22.321,168063,39954,39440,129577,146738
2025-04-22 18:15:22.326,168065,39948,39433,129559,146737
2025-04-22 18:15:22.339,168062,39927,39433,129580,146729
2025-04-22 18:15:22.346,168070,39928,39432,129590,146722
2025-04-22 18:15:22.358,168082,39912,39434,129566,146732
2025-04-22 18:15:22.366,168082,39914,39421,129570,146728
2025-04-22 18:15:22.384,168090,39900,39413,129579,146731
2025-04-22 18:15:22.386,168094,39904,39426,129559,146725
2025-04-22 18:15:22.398,168080,39886,39421,129578,146738
2025-04-22 18:15:22.405,168084,39896,39410,129573,146723
2025-04-22 18:15:22.418,168077,39873,39402,129574,146755
2025-04-22 18:15:22.425,168079,39863,39403,129570,146727
2025-04-22 18:15:22.448,168066,39861,39405,129578,146724
2025-04-22 18:15:22.449,168088,39843,39399,129579,146727
2025-04-22 18:15:22.458,168087,39842,39393,129581,146734
2025-04-22 18:15:22.466,168083,39848,39400,129583,146721
2025-04-22 18:15:22.478,168068,39841,39388,129574,146729
2025-04-22 18:15:22.485,168086,39840,39391,129573,146726
2025-04-22 18:15:22.512,168072,39829,39391,129573,146734
2025-04-22 18:15:22.513,168087,39830,39391,129569,146720
2025-04-22 18:15:22.518,168077,39832,39378,129566,146738
2025-04-22 18:15:22.526,168083,39832,39389,129580,146725
2025-04-22 18:15:22.538,168077,39827,39382,129576,146714
2025-04-22 18:15:22.545,168104,39821,39378,129572,146721
2025-04-22 18:15:22.558,168074,39823,39381,129573,146702
2025-04-22 18:15:22.582,168079,39826,39379,129572,146725
2025-04-22 18:15:22.584,168082,39821,39378,129571,146731
2025-04-22 18:15:22.590,168074,39807,39386,129564,146715
2025-04-22 18:15:22.598,168072,39804,39379,129562,146726
2025-04-22 18:15:22.610,168072,39809,39375,129560,146749
2025-04-22 18:15:22.618,168098,39804,39375,129582,146738
2025-04-22 18:15:22.630,168086,39815,39374,129563,146712
2025-04-22 18:15:22.647,168081,39813,39370,129568,146753
2025-04-22 18:15:22.650,168088,39813,39376,129569,146737
2025-04-22 18:15:22.657,168091,39815,39375,129556,146730
2025-04-22 18:15:22.670,168091,39806,39381,129568,146723
2025-04-22 18:15:22.678,168111,39818,39388,129567,146731
2025-04-22 18:15:22.690,168086,39822,39380,129568,146744
2025-04-22 18:15:22.709,168093,39824,39387,129565,146735
2025-04-22 18:15:22.711,168101,39821,39386,129560,146751
2025-04-22 18:15:22.719,168102,39830,39389,129570,146731
2025-04-22 18:15:22.730,168088,39838,39392,129579,146738
2025-04-22 18:15:22.737,168102,39840,39383,129575,146751
2025-04-22 18:15:22.750,168101,39844,39397,129570,146744
2025-04-22 18:15:22.757,168102,39851,39394,129566,146736
2025-04-22 18:15:22.776,168120,39862,39398,129559,146774
2025-04-22 18:15:22.777,168114,39862,39406,129562,146758
2025-04-22 18:15:22.790,168115,39867,39408,129585,146744
2025-04-22 18:15:22.793,168115,39867,39408,129585,146744
2025-04-22 18:15:22.798,168101,39876,39419,129589,146766
2025-04-22 18:15:22.809,168130,39883,39417,129586,146760
2025-04-22 18:15:22.817,168131,39889,39417,129577,146750
2025-04-22 18:15:22.840,168121,39895,39432,129594,146782
2025-04-22 18:15:22.842,168140,39900,39428,129603,146789
2025-04-22 18:15:22.850,168136,39904,39435,129594,146769
2025-04-22 18:15:22.862,168138,39912,39433,129587,146784
2025-04-22 18:15:22.869,168126,39919,39438,129592,146778
2025-04-22 18:15:22.882,168129,39916,39447,129585,146777
2025-04-22 18:15:22.889,168131,39934,39445,129583,146783
2025-04-22 18:15:22.904,168133,39938,39449,129598,146785
2025-04-22 18:15:22.910,168114,39937,39460,129588,146802
2025-04-22 18:15:22.922,168150,39943,39463,129595,146789
2025-04-22 18:15:22.929,168151,39948,39469,129595,146797
2025-04-22 18:15:22.941,168136,39958,39470,129589,146815
2025-04-22 18:15:22.950,168164,39958,39481,129602,146818
2025-04-22 18:15:22.967,168139,39968,39481,129606,146820
2025-04-22 18:15:22.970,168155,39973,39487,129598,146821
2025-04-22 18:15:22.982,168134,39980,39492,129612,146830
2025-04-22 18:15:22.989,168140,39989,39489,129605,146810
2025-04-22 18:15:23.002,168155,40001,39500,129614,146816
2025-04-22 18:15:23.010,168159,40010,39498,129602,146837
2025-04-22 18:15:23.031,168141,40012,39508,129605,146830
2025-04-22 18:15:23.032,168156,40022,39514,129611,146831
2025-04-22 18:15:23.042,168161,40034,39522,129604,146845
2025-04-22 18:15:23.049,168151,40046,39526,129616,146817
2025-04-22 18:15:23.062,168177,40043,39529,129613,146839
2025-04-22 18:15:23.069,168161,40038,39532,129621,146851
2025-04-22 18:15:23.097,168180,40069,39546,129627,146848
2025-04-22 18:15:23.098,168169,40056,39546,129627,146848
2025-04-22 18:15:23.101,168180,40079,39547,129628,146854
2025-04-22 18:15:23.113,168151,40071,39547,129618,146852
2025-04-22 18:15:23.121,168117,40053,39540,129609,146841
2025-04-22 18:15:23.134,168091,40046,39534,129605,146811
2025-04-22 18:15:23.141,168081,40002,39536,129600,146806
2025-04-22 18:15:23.159,168050,39992,39522,129590,146777
2025-04-22 18:15:23.161,168053,39961,39508,129574,146771
2025-04-22 18:15:23.174,168027,39933,39506,129559,146750
2025-04-22 18:15:23.181,168013,39910,39493,129562,146732
2025-04-22 18:15:23.194,168017,39886,39491,129553,146717
2025-04-22 18:15:23.201,167995,39867,39477,129551,146725
2025-04-22 18:15:23.222,168020,39845,39475,129545,146724
2025-04-22 18:15:23.223,168009,39830,39465,129546,146716
2025-04-22 18:15:23.233,168005,39807,39462,129536,146718
2025-04-22 18:15:23.241,168004,39805,39459,129557,146713
2025-04-22 18:15:23.253,168038,39792,39453,129544,146715
2025-04-22 18:15:23.261,168016,39778,39446,129550,146715
2025-04-22 18:15:23.286,168024,39770,39460,129546,146714
2025-04-22 18:15:23.287,168022,39760,39442,129546,146716
2025-04-22 18:15:23.294,168022,39745,39462,129540,146712
2025-04-22 18:15:23.302,168024,39738,39446,129554,146709
2025-04-22 18:15:23.314,168021,39719,39437,129537,146715
2025-04-22 18:15:23.321,168013,39714,39454,129540,146711
2025-04-22 18:15:23.332,168002,39708,39426,129530,146716
2025-04-22 18:15:23.349,168006,39699,39439,129540,146704
2025-04-22 18:15:23.353,167995,39683,39428,129534,146705
2025-04-22 18:15:23.362,168011,39676,39414,129539,146699
2025-04-22 18:15:23.373,168011,39662,39419,129535,146696
2025-04-22 18:15:23.385,168011,39664,39412,129529,146686
2025-04-22 18:15:23.393,168021,39651,39421,129530,146702
2025-04-22 18:15:23.411,168024,39648,39407,129517,146697
2025-04-22 18:15:23.413,168018,39642,39422,129531,146706
2025-04-22 18:15:23.425,168010,39638,39416,129530,146711
2025-04-22 18:15:23.433,168003,39634,39416,129527,146726
2025-04-22 18:15:23.445,168016,39636,39410,129533,146691
2025-04-22 18:15:23.453,168010,39628,39413,129545,146698
2025-04-22 18:15:23.474,168014,39626,39413,129530,146719
2025-04-22 18:15:23.476,168026,39621,39412,129539,146711
2025-04-22 18:15:23.485,168024,39616,39413,129531,146687
2025-04-22 18:15:23.493,168020,39614,39405,129536,146714
2025-04-22 18:15:23.506,168002,39605,39408,129526,146703
2025-04-22 18:15:23.513,168000,39608,39409,129541,146713
2025-04-22 18:15:23.540,168027,39606,39403,129534,146719
2025-04-22 18:15:23.541,168001,39603,39394,129524,146712
2025-04-22 18:15:23.546,168019,39603,39400,129536,146705
2025-04-22 18:15:23.553,168034,39602,39406,129527,146706
2025-04-22 18:15:23.565,168027,39592,39412,129532,146697
2025-04-22 18:15:23.573,168013,39606,39409,129541,146726
2025-04-22 18:15:23.585,168015,39609,39404,129550,146708
2025-04-22 18:15:23.602,168033,39606,39403,129555,146716
2025-04-22 18:15:23.604,168027,39609,39401,129537,146713
2025-04-22 18:15:23.613,168011,39598,39408,129525,146704
2025-04-22 18:15:23.625,168016,39607,39416,129523,146712
2025-04-22 18:15:23.637,168017,39614,39418,129562,146722
2025-04-22 18:15:23.645,168026,39613,39426,129505,146708
2025-04-22 18:15:23.665,168033,39619,39418,129555,146732
2025-04-22 18:15:23.667,168044,39628,39435,129547,146740
2025-04-22 18:15:23.677,168043,39626,39422,129525,146716
2025-04-22 18:15:23.685,168043,39633,39433,129537,146740
2025-04-22 18:15:23.697,168033,39630,39439,129535,146751
2025-04-22 18:15:23.705,168045,39641,39432,129557,146744
2025-04-22 18:15:23.729,168033,39640,39431,129550,146727
2025-04-22 18:15:23.730,168043,39650,39440,129555,146763
2025-04-22 18:15:23.738,168041,39652,39440,129548,146740
2025-04-22 18:15:23.745,168049,39658,39452,129538,146736
2025-04-22 18:15:23.757,168049,39657,39451,129549,146760
2025-04-22 18:15:23.765,168041,39671,39446,129533,146760
2025-04-22 18:15:23.777,168044,39669,39458,129566,146756
2025-04-22 18:15:23.792,168051,39680,39458,129548,146753
2025-04-22 18:15:23.797,168048,39681,39470,129577,146775
2025-04-22 18:15:23.805,168038,39693,39470,129556,146767
2025-04-22 18:15:23.817,168052,39693,39472,129577,146783
2025-04-22 18:15:23.826,168057,39705,39482,129559,146757
2025-04-22 18:15:23.836,168043,39705,39476,129553,146781
2025-04-22 18:15:23.856,168062,39704,39484,129561,146789
2025-04-22 18:15:23.858,168066,39712,39484,129559,146766
2025-04-22 18:15:23.866,168066,39730,39498,129569,146796
2025-04-22 18:15:23.877,168066,39739,39502,129558,146760
2025-04-22 18:15:23.889,168072,39737,39512,129576,146803
2025-04-22 18:15:23.896,168091,39745,39505,129576,146797
2025-04-22 18:15:23.920,168069,39750,39519,129572,146793
2025-04-22 18:15:23.921,168102,39768,39519,129578,146799
2025-04-22 18:15:23.930,168085,39772,39531,129588,146806
2025-04-22 18:15:23.937,168085,39768,39532,129581,146806
2025-04-22 18:15:23.949,168086,39780,39530,129601,146799
2025-04-22 18:15:23.957,168092,39799,39535,129588,146801
2025-04-22 18:15:23.969,168109,39795,39548,129584,146798
2025-04-22 18:15:23.984,168103,39819,39549,129585,146810
2025-04-22 18:15:23.989,168112,39814,39575,129586,146811
2025-04-22 18:15:24.001,168122,39825,39566,129585,146808
2025-04-22 18:15:24.002,168122,39825,39566,129585,146808
2025-04-22 18:15:24.009,168105,39839,39583,129593,146809
2025-04-22 18:15:24.016,168123,39851,39582,129595,146838
2025-04-22 18:15:24.028,168112,39849,39583,129594,146834
2025-04-22 18:15:24.046,168123,39862,39586,129597,146820
2025-04-22 18:15:24.049,168115,39874,39596,129584,146844
2025-04-22 18:15:24.057,168130,39880,39594,129587,146814
2025-04-22 18:15:24.070,168089,39878,39593,129586,146841
2025-04-22 18:15:24.077,168083,39866,39595,129586,146819
2025-04-22 18:15:24.089,168051,39847,39597,129570,146817
2025-04-22 18:15:24.111,168054,39820,39584,129570,146784
2025-04-22 18:15:24.112,168020,39792,39577,129548,146772
2025-04-22 18:15:24.116,167989,39762,39573,129560,146748
2025-04-22 18:15:24.129,167975,39729,39568,129529,146719
2025-04-22 18:15:24.137,167951,39702,39543,129527,146720
2025-04-22 18:15:24.149,167963,39667,39548,129518,146694
2025-04-22 18:15:24.160,167949,39641,39540,129503,146693
2025-04-22 18:15:24.177,167949,39624,39527,129517,146694
2025-04-22 18:15:24.180,167960,39604,39529,129505,146692
2025-04-22 18:15:24.188,167953,39590,39516,129508,146689
2025-04-22 18:15:24.201,167970,39573,39523,129508,146680
2025-04-22 18:15:24.209,167975,39561,39512,129529,146705
2025-04-22 18:15:24.221,167984,39536,39510,129518,146682
2025-04-22 18:15:24.242,167962,39531,39506,129510,146686
2025-04-22 18:15:24.244,167960,39522,39501,129521,146674
2025-04-22 18:15:24.248,167963,39503,39490,129517,146679
2025-04-22 18:15:24.261,167958,39489,39495,129505,146674
2025-04-22 18:15:24.268,167951,39475,39491,129512,146681
2025-04-22 18:15:24.281,167941,39462,39499,129498,146677
2025-04-22 18:15:24.289,167957,39454,39498,129511,146667
2025-04-22 18:15:24.305,167961,39450,39501,129495,146671
2025-04-22 18:15:24.309,167953,39431,39491,129495,146675
2025-04-22 18:15:24.321,167954,39425,39487,129512,146695
2025-04-22 18:15:24.328,167988,39408,39481,129507,146690
2025-04-22 18:15:24.340,167983,39404,39476,129506,146687
2025-04-22 18:15:24.349,167975,39384,39477,129505,146680
2025-04-22 18:15:24.368,167970,39397,39466,129519,146677
2025-04-22 18:15:24.369,167968,39383,39482,129508,146686
2025-04-22 18:15:24.380,167977,39372,39484,129515,146687
2025-04-22 18:15:24.388,167981,39364,39478,129515,146695
2025-04-22 18:15:24.400,167963,39363,39483,129517,146688
2025-04-22 18:15:24.412,167983,39361,39478,129511,146683
2025-04-22 18:15:24.431,167980,39350,39485,129513,146688
2025-04-22 18:15:24.432,167960,39345,39480,129508,146689
2025-04-22 18:15:24.441,167951,39345,39478,129510,146692
2025-04-22 18:15:24.453,167965,39340,39479,129505,146694
2025-04-22 18:15:24.460,167968,39340,39489,129520,146677
2025-04-22 18:15:24.473,167956,39334,39484,129530,146681
2025-04-22 18:15:24.480,167952,39331,39482,129527,146695
2025-04-22 18:15:24.495,167975,39334,39474,129521,146673
2025-04-22 18:15:24.501,167961,39332,39472,129506,146682
2025-04-22 18:15:24.512,167972,39328,39483,129503,146678
2025-04-22 18:15:24.520,167988,39322,39470,129496,146683
2025-04-22 18:15:24.533,167966,39326,39473,129491,146662
2025-04-22 18:15:24.540,167986,39326,39472,129517,146681
2025-04-22 18:15:24.558,167985,39320,39483,129518,146674
2025-04-22 18:15:24.560,167981,39328,39491,129510,146686
2025-04-22 18:15:24.572,167964,39330,39487,129518,146688
2025-04-22 18:15:24.580,167960,39327,39482,129522,146692
2025-04-22 18:15:24.592,167961,39328,39479,129527,146694
2025-04-22 18:15:24.600,167975,39337,39488,129518,146692
2025-04-22 18:15:24.622,167963,39337,39493,129514,146686
2025-04-22 18:15:24.623,167962,39346,39492,129523,146701
2025-04-22 18:15:24.632,167982,39348,39500,129524,146701
2025-04-22 18:15:24.640,167985,39348,39501,129508,146696
2025-04-22 18:15:24.652,167992,39350,39516,129525,146686
2025-04-22 18:15:24.665,167998,39361,39519,129514,146690
2025-04-22 18:15:24.686,167991,39367,39524,129522,146704
2025-04-22 18:15:24.687,168028,39373,39516,129515,146719
2025-04-22 18:15:24.692,168028,39387,39530,129533,146724
2025-04-22 18:15:24.704,168013,39389,39534,129519,146725
2025-04-22 18:15:24.712,168013,39398,39540,129545,146736
2025-04-22 18:15:24.724,168021,39398,39554,129551,146753
2025-04-22 18:15:24.731,168031,39414,39544,129565,146750
2025-04-22 18:15:24.750,168002,39417,39559,129534,146749
2025-04-22 18:15:24.753,168017,39421,39559,129548,146759
2025-04-22 18:15:24.764,167997,39430,39573,129552,146740
2025-04-22 18:15:24.772,168015,39442,39574,129545,146751
2025-04-22 18:15:24.784,168030,39432,39584,129562,146755
2025-04-22 18:15:24.792,168023,39451,39593,129556,146767
2025-04-22 18:15:24.813,168007,39460,39591,129555,146773
2025-04-22 18:15:24.814,168049,39473,39608,129576,146777
2025-04-22 18:15:24.824,168034,39473,39611,129566,146784
2025-04-22 18:15:24.832,168042,39484,39603,129560,146783
2025-04-22 18:15:24.845,168023,39493,39616,129576,146782
2025-04-22 18:15:24.852,168038,39498,39609,129579,146792
2025-04-22 18:15:24.877,168044,39500,39615,129580,146796
2025-04-22 18:15:24.878,168047,39514,39623,129585,146782
2025-04-22 18:15:24.883,168050,39517,39627,129591,146802
2025-04-22 18:15:24.892,168051,39532,39629,129590,146775
2025-04-22 18:15:24.904,168048,39537,39639,129575,146800
2025-04-22 18:15:24.916,168015,39545,39646,129592,146797
2025-04-22 18:15:24.924,168046,39556,39658,129589,146784
2025-04-22 18:15:24.940,168028,39558,39651,129571,146794
2025-04-22 18:15:24.947,168054,39571,39661,129592,146813
2025-04-22 18:15:24.955,168048,39583,39660,129601,146819
2025-04-22 18:15:24.965,168045,39579,39666,129605,146818
2025-04-22 18:15:24.976,168066,39605,39687,129604,146812
2025-04-22 18:15:24.984,168090,39608,39685,129594,146835
2025-04-22 18:15:25.003,168079,39621,39686,129609,146824
2025-04-22 18:15:25.009,168120,39634,39698,129617,146843
2025-04-22 18:15:25.010,168120,39634,39698,129617,146843
2025-04-22 18:15:25.016,168091,39653,39717,129617,146851
2025-04-22 18:15:25.026,168109,39671,39729,129621,146849
2025-04-22 18:15:25.035,168107,39670,39737,129611,146858
2025-04-22 18:15:25.044,168114,39684,39743,129627,146861
2025-04-22 18:15:25.069,168081,39687,39759,129629,146883
2025-04-22 18:15:25.070,168056,39667,39760,129624,146859
2025-04-22 18:15:25.076,168047,39654,39762,129634,146868
2025-04-22 18:15:25.084,168004,39622,39751,129620,146816
2025-04-22 18:15:25.096,167985,39588,39746,129607,146813
2025-04-22 18:15:25.103,167980,39555,39733,129597,146793
2025-04-22 18:15:25.116,167937,39524,39721,129585,146791
2025-04-22 18:15:25.133,167942,39488,39714,129571,146758
2025-04-22 18:15:25.136,167943,39477,39697,129561,146745
2025-04-22 18:15:25.144,167950,39431,39695,129556,146730
2025-04-22 18:15:25.155,167938,39418,39683,129548,146733
2025-04-22 18:15:25.164,167934,39399,39678,129564,146731
2025-04-22 18:15:25.176,167951,39376,39680,129542,146726
2025-04-22 18:15:25.197,167942,39366,39677,129524,146721
2025-04-22 18:15:25.198,167955,39337,39672,129540,146719
2025-04-22 18:15:25.208,167957,39328,39670,129552,146724
2025-04-22 18:15:25.216,167962,39311,39670,129538,146718
2025-04-22 18:15:25.228,167951,39322,39668,129539,146728
2025-04-22 18:15:25.236,167939,39294,39662,129539,146704
2025-04-22 18:15:25.262,167950,39295,39660,129571,146725
2025-04-22 18:15:25.264,167948,39265,39671,129549,146710
2025-04-22 18:15:25.268,167948,39261,39664,129540,146709
2025-04-22 18:15:25.276,167960,39251,39664,129542,146718
2025-04-22 18:15:25.288,167952,39225,39659,129542,146719
2025-04-22 18:15:25.295,167943,39202,39645,129524,146705
2025-04-22 18:15:25.308,167925,39199,39646,129536,146704
2025-04-22 18:15:25.327,167923,39197,39647,129553,146704
2025-04-22 18:15:25.328,167940,39175,39637,129542,146693
2025-04-22 18:15:25.337,167930,39161,39632,129547,146696
2025-04-22 18:15:25.348,167944,39160,39634,129527,146703
2025-04-22 18:15:25.356,167914,39156,39618,129517,146690
2025-04-22 18:15:25.368,167932,39152,39617,129526,146695
2025-04-22 18:15:25.389,167922,39139,39615,129540,146678
2025-04-22 18:15:25.390,167921,39137,39622,129510,146683
2025-04-22 18:15:25.395,167913,39121,39629,129510,146670
2025-04-22 18:15:25.407,167908,39129,39609,129506,146671
2025-04-22 18:15:25.415,167917,39113,39611,129499,146671
2025-04-22 18:15:25.428,167918,39114,39609,129510,146667
2025-04-22 18:15:25.452,167912,39113,39605,129512,146682
2025-04-22 18:15:25.453,167918,39114,39613,129503,146685
2025-04-22 18:15:25.460,167899,39105,39606,129522,146683
2025-04-22 18:15:25.468,167910,39099,39604,129505,146688
2025-04-22 18:15:25.480,167907,39098,39606,129503,146676
2025-04-22 18:15:25.487,167914,39090,39606,129503,146672
2025-04-22 18:15:25.500,167914,39094,39604,129507,146691
2025-04-22 18:15:25.516,167897,39093,39612,129506,146666
2025-04-22 18:15:25.519,167910,39102,39614,129505,146685
2025-04-22 18:15:25.528,167912,39096,39606,129513,146653
2025-04-22 18:15:25.540,167924,39105,39614,129513,146693
2025-04-22 18:15:25.548,167913,39094,39615,129504,146675
2025-04-22 18:15:25.560,167917,39108,39616,129507,146679
2025-04-22 18:15:25.580,167920,39114,39612,129506,146680
2025-04-22 18:15:25.581,167934,39112,39622,129519,146680
2025-04-22 18:15:25.588,167942,39126,39631,129514,146689
2025-04-22 18:15:25.600,167949,39122,39627,129516,146668
2025-04-22 18:15:25.607,167952,39120,39627,129516,146682
2025-04-22 18:15:25.619,167936,39131,39640,129516,146696
2025-04-22 18:15:25.627,167925,39125,39649,129513,146689
2025-04-22 18:15:25.642,167936,39140,39643,129517,146681
2025-04-22 18:15:25.648,167949,39144,39632,129516,146677
2025-04-22 18:15:25.659,167934,39149,39648,129523,146689
2025-04-22 18:15:25.667,167937,39158,39643,129513,146698
2025-04-22 18:15:25.679,167926,39155,39657,129517,146690
2025-04-22 18:15:25.705,167937,39163,39654,129521,146678
2025-04-22 18:15:25.706,167951,39169,39658,129504,146704
2025-04-22 18:15:25.711,167953,39165,39652,129518,146689
2025-04-22 18:15:25.719,167954,39169,39663,129505,146717
2025-04-22 18:15:25.732,167957,39178,39662,129499,146706
2025-04-22 18:15:25.740,167955,39189,39659,129497,146687
2025-04-22 18:15:25.752,167964,39196,39669,129512,146691
2025-04-22 18:15:25.769,167960,39200,39671,129510,146676
2025-04-22 18:15:25.772,167957,39215,39678,129499,146690
2025-04-22 18:15:25.779,167963,39206,39679,129516,146682
2025-04-22 18:15:25.792,167962,39220,39691,129502,146697
2025-04-22 18:15:25.799,167955,39224,39686,129514,146690
2025-04-22 18:15:25.811,167958,39234,39695,129515,146699
2025-04-22 18:15:25.832,167970,39245,39695,129516,146700
2025-04-22 18:15:25.834,167971,39254,39703,129505,146714
2025-04-22 18:15:25.839,167968,39260,39709,129505,146716
2025-04-22 18:15:25.851,167979,39262,39719,129509,146705
2025-04-22 18:15:25.859,167967,39266,39708,129512,146716
2025-04-22 18:15:25.872,167967,39271,39717,129523,146699
2025-04-22 18:15:25.880,167978,39293,39706,129505,146704
2025-04-22 18:15:25.896,167987,39295,39719,129512,146713
2025-04-22 18:15:25.899,167994,39307,39723,129509,146702
2025-04-22 18:15:25.911,167991,39312,39718,129506,146713
2025-04-22 18:15:25.920,167992,39324,39729,129496,146714
2025-04-22 18:15:25.931,168006,39329,39732,129502,146702
2025-04-22 18:15:25.944,167994,39332,39750,129508,146722
2025-04-22 18:15:25.961,167979,39351,39750,129504,146718
2025-04-22 18:15:25.963,167983,39359,39753,129512,146710
2025-04-22 18:15:25.972,167988,39364,39759,129501,146732
2025-04-22 18:15:25.984,168005,39370,39763,129508,146732
2025-04-22 18:15:25.992,167975,39389,39766,129508,146730
2025-04-22 18:15:26.003,168016,39389,39771,129505,146728
2025-04-22 18:15:26.024,168023,39400,39777,129508,146716
2025-04-22 18:15:26.025,168023,39400,39777,129508,146716
2025-04-22 18:15:26.026,168034,39421,39799,129499,146725
2025-04-22 18:15:26.032,168034,39435,39799,129514,146715
2025-04-22 18:15:26.043,168014,39440,39798,129506,146715
2025-04-22 18:15:26.051,168009,39442,39791,129502,146724
2025-04-22 18:15:26.063,167987,39433,39803,129497,146705
2025-04-22 18:15:26.072,167959,39417,39794,129493,146705
2025-04-22 18:15:26.090,167935,39399,39785,129471,146686
2025-04-22 18:15:26.092,167923,39377,39772,129463,146670
2025-04-22 18:15:26.103,167894,39334,39773,129454,146645
2025-04-22 18:15:26.113,167885,39304,39761,129432,146636
2025-04-22 18:15:26.123,167877,39277,39746,129422,146596
2025-04-22 18:15:26.132,167861,39242,39738,129431,146585
2025-04-22 18:15:26.153,167870,39216,39749,129410,146574
2025-04-22 18:15:26.154,167865,39188,39727,129414,146574
2025-04-22 18:15:26.163,167863,39162,39732,129404,146560
2025-04-22 18:15:26.171,167893,39150,39722,129403,146559
2025-04-22 18:15:26.183,167870,39147,39724,129415,146579
2025-04-22 18:15:26.192,167889,39127,39728,129416,146565
2025-04-22 18:15:26.216,167878,39117,39717,129416,146564
2025-04-22 18:15:26.217,167887,39107,39720,129398,146570
2025-04-22 18:15:26.224,167872,39101,39727,129396,146564
2025-04-22 18:15:26.235,167865,39082,39720,129409,146547
2025-04-22 18:15:26.243,167893,39068,39725,129393,146554
2025-04-22 18:15:26.256,167858,39062,39718,129405,146535
2025-04-22 18:15:26.263,167897,39054,39711,129394,146555
2025-04-22 18:15:26.280,167880,39040,39701,129382,146523
2025-04-22 18:15:26.283,167880,39019,39700,129391,146543
2025-04-22 18:15:26.295,167901,39011,39702,129394,146542
2025-04-22 18:15:26.303,167877,39015,39704,129386,146542
2025-04-22 18:15:26.315,167879,39015,39701,129395,146523
2025-04-22 18:15:26.323,167869,38998,39695,129393,146539
2025-04-22 18:15:26.345,167885,38990,39699,129385,146532
2025-04-22 18:15:26.346,167860,38983,39689,129377,146522
2025-04-22 18:15:26.355,167874,38996,39681,129384,146516
2025-04-22 18:15:26.363,167878,38979,39702,129367,146537
2025-04-22 18:15:26.376,167874,38963,39689,129369,146525
2025-04-22 18:15:26.383,167867,38964,39683,129371,146521
2025-04-22 18:15:26.408,167887,38960,39682,129376,146516
2025-04-22 18:15:26.409,167882,38949,39685,129362,146496
2025-04-22 18:15:26.415,167873,38953,39681,129365,146524
2025-04-22 18:15:26.423,167873,38956,39692,129366,146532
2025-04-22 18:15:26.435,167859,38942,39688,129400,146487
2025-04-22 18:15:26.443,167851,38953,39683,129371,146510
2025-04-22 18:15:26.455,167874,38944,39694,129376,146506
2025-04-22 18:15:26.471,167864,38943,39692,129374,146529
2025-04-22 18:15:26.475,167867,38940,39681,129360,146530
2025-04-22 18:15:26.487,167888,38922,39691,129373,146518
2025-04-22 18:15:26.495,167874,38949,39697,129369,146525
2025-04-22 18:15:26.507,167866,38929,39686,129368,146530
2025-04-22 18:15:26.515,167875,38946,39687,129365,146515
2025-04-22 18:15:26.534,167870,38945,39687,129373,146524
2025-04-22 18:15:26.535,167872,38938,39690,129378,146528
2025-04-22 18:15:26.546,167884,38954,39691,129371,146515
2025-04-22 18:15:26.555,167877,38955,39682,129371,146509
2025-04-22 18:15:26.566,167899,38954,39690,129375,146525
2025-04-22 18:15:26.576,167888,38959,39697,129361,146530
2025-04-22 18:15:26.598,167903,38958,39697,129358,146531
2025-04-22 18:15:26.599,167896,38960,39689,129362,146523
2025-04-22 18:15:26.607,167893,38966,39687,129355,146534
2025-04-22 18:15:26.615,167875,38976,39709,129383,146509
2025-04-22 18:15:26.627,167888,38990,39701,129374,146529
2025-04-22 18:15:26.634,167902,38998,39725,129373,146532
2025-04-22 18:15:26.663,167903,39000,39698,129369,146527
2025-04-22 18:15:26.664,167906,39008,39716,129387,146541
2025-04-22 18:15:26.666,167897,39010,39730,129365,146536
2025-04-22 18:15:26.675,167907,39002,39707,129386,146550
2025-04-22 18:15:26.688,167909,39021,39742,129371,146555
2025-04-22 18:15:26.694,167907,39042,39716,129375,146538
2025-04-22 18:15:26.707,167916,39044,39733,129380,146541
2025-04-22 18:15:26.725,167900,39052,39729,129386,146555
2025-04-22 18:15:26.727,167932,39053,39731,129376,146555
2025-04-22 18:15:26.739,167922,39038,39736,129381,146547
2025-04-22 18:15:26.747,167924,39060,39732,129385,146564
2025-04-22 18:15:26.759,167923,39071,39742,129391,146544
2025-04-22 18:15:26.767,167916,39074,39748,129377,146559
2025-04-22 18:15:26.789,167927,39081,39756,129392,146566
2025-04-22 18:15:26.790,167918,39091,39761,129401,146572
2025-04-22 18:15:26.799,167921,39096,39765,129397,146570
2025-04-22 18:15:26.807,167914,39103,39767,129379,146564
2025-04-22 18:15:26.819,167916,39116,39771,129384,146556
2025-04-22 18:15:26.826,167914,39110,39771,129389,146573
2025-04-22 18:15:26.853,167915,39131,39781,129397,146575
2025-04-22 18:15:26.855,167913,39138,39775,129404,146566
2025-04-22 18:15:26.859,167931,39145,39786,129403,146585
2025-04-22 18:15:26.868,167925,39148,39789,129399,146592
2025-04-22 18:15:26.879,167941,39160,39794,129398,146573
2025-04-22 18:15:26.887,167935,39166,39804,129406,146590
2025-04-22 18:15:26.899,167967,39182,39799,129391,146576
2025-04-22 18:15:26.918,167949,39184,39809,129409,146592
2025-04-22 18:15:26.919,167973,39206,39813,129413,146586
2025-04-22 18:15:26.926,167963,39208,39813,129414,146576
2025-04-22 18:15:26.939,167966,39223,39829,129424,146614
2025-04-22 18:15:26.947,167967,39228,39835,129399,146623
2025-04-22 18:15:26.959,167975,39231,39837,129412,146613
2025-04-22 18:15:26.981,167955,39254,39847,129412,146604
2025-04-22 18:15:26.982,167941,39251,39850,129438,146614
2025-04-22 18:15:26.987,167933,39249,39853,129405,146612
2025-04-22 18:15:26.999,167906,39240,39850,129455,146623
2025-04-22 18:15:27.011,167892,39217,39842,129428,146606
2025-04-22 18:15:27.019,167864,39192,39839,129439,146589
2025-04-22 18:15:27.022,167864,39192,39839,129439,146589
2025-04-22 18:15:27.045,167846,39121,39832,129389,146552
2025-04-22 18:15:27.046,167830,39094,39814,129388,146521
2025-04-22 18:15:27.051,167812,39069,39804,129367,146522
2025-04-22 18:15:27.059,167848,39035,39808,129385,146499
2025-04-22 18:15:27.071,167829,39013,39797,129362,146507
2025-04-22 18:15:27.078,167831,39008,39804,129367,146496
2025-04-22 18:15:27.091,167828,38988,39798,129375,146503
2025-04-22 18:15:27.109,167825,38982,39800,129381,146498
2025-04-22 18:15:27.111,167850,38969,39788,129367,146499
2025-04-22 18:15:27.119,167839,38962,39782,129372,146506
2025-04-22 18:15:27.131,167849,38946,39796,129365,146516
2025-04-22 18:15:27.139,167828,38953,39788,129366,146501
2025-04-22 18:15:27.150,167837,38936,39777,129374,146510
2025-04-22 18:15:27.158,167851,38929,39783,129365,146493
2025-04-22 18:15:27.174,167830,38925,39776,129362,146502
2025-04-22 18:15:27.178,167847,38922,39776,129374,146472
2025-04-22 18:15:27.190,167853,38905,39774,129355,146495
2025-04-22 18:15:27.199,167849,38903,39771,129350,146481
2025-04-22 18:15:27.210,167847,38901,39766,129354,146503
2025-04-22 18:15:27.222,167849,38883,39769,129358,146486
2025-04-22 18:15:27.237,167851,38883,39769,129347,146487
2025-04-22 18:15:27.242,167846,38896,39777,129344,146504
2025-04-22 18:15:27.251,167835,38884,39759,129336,146440
2025-04-22 18:15:27.262,167847,38876,39768,129350,146495
2025-04-22 18:15:27.270,167829,38874,39766,129359,146490
2025-04-22 18:15:27.282,167849,38867,39769,129357,146488
2025-04-22 18:15:27.300,167840,38876,39762,129337,146492
2025-04-22 18:15:27.303,167851,38865,39765,129339,146476
2025-04-22 18:15:27.310,167837,38857,39766,129352,146497
2025-04-22 18:15:27.323,167836,38865,39767,129348,146463
2025-04-22 18:15:27.330,167835,38858,39760,129345,146488
2025-04-22 18:15:27.342,167816,38867,39753,129338,146498
2025-04-22 18:15:27.364,167850,38858,39768,129347,146480
2025-04-22 18:15:27.366,167844,38857,39755,129346,146486
2025-04-22 18:15:27.370,167847,38853,39764,129346,146512
2025-04-22 18:15:27.383,167860,38853,39759,129341,146474
2025-04-22 18:15:27.390,167848,38862,39763,129340,146483
2025-04-22 18:15:27.402,167835,38862,39765,129334,146484
2025-04-22 18:15:27.410,167861,38859,39762,129355,146497
2025-04-22 18:15:27.431,167846,38871,39769,129353,146501
2025-04-22 18:15:27.433,167868,38876,39771,129358,146502
2025-04-22 18:15:27.442,167865,38876,39776,129348,146508
2025-04-22 18:15:27.451,167857,38883,39780,129359,146513
2025-04-22 18:15:27.462,167865,38891,39781,129350,146515
2025-04-22 18:15:27.471,167866,38892,39785,129351,146503
2025-04-22 18:15:27.495,167867,38899,39776,129341,146516
2025-04-22 18:15:27.496,167852,38899,39777,129354,146490
2025-04-22 18:15:27.503,167861,38905,39787,129365,146516
2025-04-22 18:15:27.514,167855,38916,39788,129351,146497
2025-04-22 18:15:27.523,167863,38923,39787,129349,146514
2025-04-22 18:15:27.535,167871,38931,39799,129355,146515
2025-04-22 18:15:27.543,167895,38934,39797,129347,146539
2025-04-22 18:15:27.558,167880,38948,39795,129370,146526
2025-04-22 18:15:27.562,167886,38960,39809,129364,146546
2025-04-22 18:15:27.574,167877,38952,39806,129364,146523
2025-04-22 18:15:27.583,167888,38963,39820,129364,146513
2025-04-22 18:15:27.594,167881,38979,39810,129369,146527
2025-04-22 18:15:27.601,167865,38972,39823,129364,146530
2025-04-22 18:15:27.622,167869,38983,39822,129376,146543
2025-04-22 18:15:27.624,167896,38986,39837,129357,146546
2025-04-22 18:15:27.635,167893,39004,39829,129368,146552
2025-04-22 18:15:27.642,167877,39009,39825,129368,146546
2025-04-22 18:15:27.655,167885,39019,39844,129375,146545
2025-04-22 18:15:27.662,167875,39027,39842,129379,146553
2025-04-22 18:15:27.686,167882,39027,39841,129376,146550
2025-04-22 18:15:27.687,167902,39032,39848,129380,146565
2025-04-22 18:15:27.694,167895,39051,39849,129383,146567
2025-04-22 18:15:27.703,167905,39052,39837,129390,146553
2025-04-22 18:15:27.714,167896,39063,39851,129379,146576
2025-04-22 18:15:27.722,167905,39067,39860,129387,146569
2025-04-22 18:15:27.734,167896,39077,39859,129386,146571
2025-04-22 18:15:27.750,167904,39080,39869,129400,146579
2025-04-22 18:15:27.754,167912,39102,39872,129383,146583
2025-04-22 18:15:27.766,167934,39102,39877,129400,146594
2025-04-22 18:15:27.775,167914,39118,39883,129393,146584
2025-04-22 18:15:27.786,167910,39130,39878,129385,146575
2025-04-22 18:15:27.794,167921,39143,39884,129396,146589
2025-04-22 18:15:27.814,167922,39146,39892,129396,146592
2025-04-22 18:15:27.815,167935,39154,39902,129403,146596
2025-04-22 18:15:27.827,167904,39161,39909,129413,146596
2025-04-22 18:15:27.834,167900,39164,39905,129407,146595
2025-04-22 18:15:27.846,167878,39161,39912,129400,146584
2025-04-22 18:15:27.855,167867,39141,39889,129388,146591
2025-04-22 18:15:27.877,167833,39118,39888,129388,146567
2025-04-22 18:15:27.879,167815,39082,39876,129389,146542
2025-04-22 18:15:27.886,167789,39054,39866,129364,146515
2025-04-22 18:15:27.895,167802,39021,39863,129359,146506
2025-04-22 18:15:27.906,167781,38987,39854,129335,146486
2025-04-22 18:15:27.915,167772,38952,39844,129330,146470
2025-04-22 18:15:27.926,167777,38931,39838,129333,146471
2025-04-22 18:15:27.944,167783,38916,39830,129324,146463
2025-04-22 18:15:27.946,167769,38889,39830,129327,146474
2025-04-22 18:15:27.954,167784,38863,39829,129328,146462
2025-04-22 18:15:27.966,167766,38856,39816,129346,146474
2025-04-22 18:15:27.975,167775,38847,39819,129316,146451
2025-04-22 18:15:27.986,167784,38830,39818,129332,146461
2025-04-22 18:15:28.009,167787,38822,39823,129337,146471
2025-04-22 18:15:28.010,167784,38815,39810,129339,146473
2025-04-22 18:15:28.014,167779,38811,39801,129333,146460
2025-04-22 18:15:28.026,167772,38791,39799,129333,146446
2025-04-22 18:15:28.030,167772,38791,39799,129333,146446
2025-04-22 18:15:28.038,167768,38759,39801,129322,146446
2025-04-22 18:15:28.046,167764,38744,39789,129335,146459
2025-04-22 18:15:28.058,167749,38737,39779,129323,146454
2025-04-22 18:15:28.075,167742,38739,39774,129333,146449
2025-04-22 18:15:28.079,167760,38724,39763,129322,146439
2025-04-22 18:15:28.086,167756,38722,39787,129319,146454
2025-04-22 18:15:28.098,167741,38712,39773,129326,146443
2025-04-22 18:15:28.106,167766,38708,39770,129323,146442
2025-04-22 18:15:28.118,167771,38699,39765,129318,146435
2025-04-22 18:15:28.137,167763,38701,39768,129307,146461
2025-04-22 18:15:28.139,167759,38698,39763,129329,146467
2025-04-22 18:15:28.147,167775,38694,39773,129327,146459
2025-04-22 18:15:28.158,167779,38683,39762,129337,146468
2025-04-22 18:15:28.166,167770,38686,39759,129330,146452
2025-04-22 18:15:28.178,167749,38680,39753,129331,146437
2025-04-22 18:15:28.186,167761,38678,39753,129336,146470
2025-04-22 18:15:28.201,167754,38671,39749,129326,146469
2025-04-22 18:15:28.205,167773,38675,39757,129331,146463
2025-04-22 18:15:28.217,167760,38666,39751,129347,146458
2025-04-22 18:15:28.226,167757,38666,39752,129334,146450
2025-04-22 18:15:28.238,167740,38660,39750,129335,146471
2025-04-22 18:15:28.246,167754,38670,39741,129325,146457
2025-04-22 18:15:28.266,167758,38665,39744,129336,146457
2025-04-22 18:15:28.268,167763,38665,39742,129334,146458
2025-04-22 18:15:28.278,167735,38658,39748,129322,146473
2025-04-22 18:15:28.290,167744,38666,39724,129323,146447
2025-04-22 18:15:28.298,167751,38675,39744,129332,146463
2025-04-22 18:15:28.310,167748,38680,39738,129318,146458
2025-04-22 18:15:28.330,167754,38677,39735,129346,146459
2025-04-22 18:15:28.332,167751,38688,39730,129319,146465
2025-04-22 18:15:28.338,167750,38690,39747,129330,146458
2025-04-22 18:15:28.349,167761,38704,39739,129331,146471
2025-04-22 18:15:28.358,167753,38699,39744,129343,146472
2025-04-22 18:15:28.370,167757,38702,39735,129324,146458
2025-04-22 18:15:28.378,167763,38704,39746,129329,146450
2025-04-22 18:15:28.393,167769,38714,39745,129310,146484
2025-04-22 18:15:28.397,167768,38720,39748,129345,146473
2025-04-22 18:15:28.410,167785,38721,39743,129336,146469
2025-04-22 18:15:28.418,167758,38731,39752,129327,146476
2025-04-22 18:15:28.430,167760,38729,39747,129317,146485
2025-04-22 18:15:28.437,167759,38737,39761,129347,146467
2025-04-22 18:15:28.455,167786,38754,39768,129334,146480
2025-04-22 18:15:28.458,167774,38763,39765,129333,146477
2025-04-22 18:15:28.470,167777,38766,39768,129334,146494
2025-04-22 18:15:28.478,167765,38772,39767,129346,146486
2025-04-22 18:15:28.490,167785,38777,39777,129355,146507
2025-04-22 18:15:28.498,167776,38786,39785,129352,146504
2025-04-22 18:15:28.521,167783,38796,39785,129355,146498
2025-04-22 18:15:28.523,167774,38794,39786,129349,146512
2025-04-22 18:15:28.530,167778,38802,39782,129355,146512
2025-04-22 18:15:28.538,167803,38827,39788,129349,146513
2025-04-22 18:15:28.550,167783,38821,39781,129358,146510
2025-04-22 18:15:28.561,167804,38834,39800,129336,146524
2025-04-22 18:15:28.570,167784,38845,39803,129363,146501
2025-04-22 18:15:28.585,167807,38856,39791,129358,146519
2025-04-22 18:15:28.589,167791,38863,39797,129361,146527
2025-04-22 18:15:28.602,167795,38861,39809,129356,146526
2025-04-22 18:15:28.609,167801,38885,39806,129367,146528
2025-04-22 18:15:28.622,167802,38894,39816,129363,146532
2025-04-22 18:15:28.630,167810,38905,39815,129359,146543
2025-04-22 18:15:28.648,167801,38891,39817,129357,146534
2025-04-22 18:15:28.650,167806,38912,39816,129368,146538
2025-04-22 18:15:28.661,167791,38919,39834,129362,146549
2025-04-22 18:15:28.670,167815,38940,39829,129370,146555
2025-04-22 18:15:28.681,167814,38954,39826,129368,146540
2025-04-22 18:15:28.689,167811,38952,39823,129380,146563
2025-04-22 18:15:28.712,167804,38964,39837,129373,146551
2025-04-22 18:15:28.714,167806,38970,39840,129378,146561
2025-04-22 18:15:28.721,167815,38974,39846,129392,146560
2025-04-22 18:15:28.730,167812,38989,39857,129374,146566
2025-04-22 18:15:28.742,167830,39006,39846,129391,146559
2025-04-22 18:15:28.749,167817,39016,39855,129380,146559
2025-04-22 18:15:28.775,167807,39004,39859,129380,146552
2025-04-22 18:15:28.776,167803,39008,39848,129353,146550
2025-04-22 18:15:28.781,167752,38998,39846,129362,146547
2025-04-22 18:15:28.789,167732,38968,39848,129365,146520
2025-04-22 18:15:28.802,167700,38936,39836,129337,146526
2025-04-22 18:15:28.813,167698,38897,39828,129339,146476
2025-04-22 18:15:28.822,167677,38879,39803,129313,146454
2025-04-22 18:15:28.839,167653,38829,39796,129309,146439
2025-04-22 18:15:28.841,167646,38800,39787,129293,146420
2025-04-22 18:15:28.853,167645,38770,39755,129297,146417
2025-04-22 18:15:28.862,167656,38747,39751,129266,146400
2025-04-22 18:15:28.873,167637,38712,39756,129294,146410
2025-04-22 18:15:28.882,167650,38703,39745,129284,146399
2025-04-22 18:15:28.903,167654,38677,39745,129283,146396
2025-04-22 18:15:28.904,167642,38660,39735,129286,146401
2025-04-22 18:15:28.914,167640,38641,39730,129296,146393
2025-04-22 18:15:28.922,167654,38636,39725,129274,146401
2025-04-22 18:15:28.934,167649,38622,39715,129282,146388
2025-04-22 18:15:28.942,167632,38607,39709,129284,146407
2025-04-22 18:15:28.969,167651,38598,39695,129299,146399
2025-04-22 18:15:28.971,167644,38576,39703,129291,146404
2025-04-22 18:15:28.973,167641,38575,39689,129277,146380
2025-04-22 18:15:28.982,167633,38556,39681,129268,146382
2025-04-22 18:15:28.993,167638,38524,39682,129262,146368
2025-04-22 18:15:29.002,167628,38507,39661,129278,146366
2025-04-22 18:15:29.013,167631,38498,39663,129271,146349
2025-04-22 18:15:29.034,167619,38488,39645,129277,146354
2025-04-22 18:15:29.035,167614,38480,39644,129270,146377
2025-04-22 18:15:29.038,167614,38480,39644,129270,146377
2025-04-22 18:15:29.042,167623,38459,39628,129263,146377
2025-04-22 18:15:29.053,167625,38458,39641,129266,146365
2025-04-22 18:15:29.062,167616,38449,39628,129275,146365
2025-04-22 18:15:29.074,167617,38449,39624,129259,146380
2025-04-22 18:15:29.099,167623,38440,39610,129251,146367
2025-04-22 18:15:29.101,167615,38448,39614,129265,146372
2025-04-22 18:15:29.105,167615,38440,39605,129271,146381
2025-04-22 18:15:29.113,167620,38440,39606,129271,146357
2025-04-22 18:15:29.125,167629,38429,39591,129262,146364
2025-04-22 18:15:29.134,167621,38419,39597,129266,146372
2025-04-22 18:15:29.145,167613,38424,39580,129253,146374
2025-04-22 18:15:29.167,167638,38413,39595,129259,146364
2025-04-22 18:15:29.169,167605,38417,39568,129256,146351
2025-04-22 18:15:29.173,167616,38413,39587,129256,146356
2025-04-22 18:15:29.186,167606,38412,39577,129264,146356
2025-04-22 18:15:29.194,167611,38416,39560,129254,146361
2025-04-22 18:15:29.205,167607,38413,39569,129252,146356
2025-04-22 18:15:29.214,167586,38424,39554,129261,146363
2025-04-22 18:15:29.235,167615,38417,39562,129240,146344
2025-04-22 18:15:29.237,167620,38423,39563,129266,146359
2025-04-22 18:15:29.246,167619,38427,39562,129264,146357
2025-04-22 18:15:29.254,167608,38431,39558,129246,146356
2025-04-22 18:15:29.266,167618,38430,39552,129249,146361
2025-04-22 18:15:29.274,167598,38437,39552,129250,146364
2025-04-22 18:15:29.300,167628,38442,39551,129255,146374
2025-04-22 18:15:29.302,167628,38444,39548,129244,146359
2025-04-22 18:15:29.305,167607,38459,39552,129264,146360
2025-04-22 18:15:29.313,167616,38461,39551,129241,146371
2025-04-22 18:15:29.325,167614,38476,39553,129258,146370
2025-04-22 18:15:29.337,167610,38471,39558,129271,146369
2025-04-22 18:15:29.345,167631,38478,39558,129273,146379
2025-04-22 18:15:29.364,167620,38486,39548,129275,146372
2025-04-22 18:15:29.365,167624,38487,39559,129263,146392
2025-04-22 18:15:29.378,167625,38505,39564,129268,146409
2025-04-22 18:15:29.385,167619,38507,39567,129278,146403
2025-04-22 18:15:29.397,167636,38515,39559,129280,146398
2025-04-22 18:15:29.405,167650,38518,39568,129269,146388
2025-04-22 18:15:29.427,167626,38525,39572,129285,146416
2025-04-22 18:15:29.429,167639,38532,39568,129277,146397
2025-04-22 18:15:29.437,167626,38540,39583,129285,146427
2025-04-22 18:15:29.445,167629,38553,39575,129295,146407
2025-04-22 18:15:29.457,167643,38556,39568,129288,146416
2025-04-22 18:15:29.465,167628,38562,39569,129275,146416
2025-04-22 18:15:29.491,167635,38570,39567,129299,146423
2025-04-22 18:15:29.493,167643,38583,39568,129288,146415
2025-04-22 18:15:29.496,167635,38587,39580,129286,146424
2025-04-22 18:15:29.505,167650,38595,39572,129287,146402
2025-04-22 18:15:29.517,167641,38599,39580,129269,146423
2025-04-22 18:15:29.525,167654,38606,39582,129282,146429
2025-04-22 18:15:29.537,167645,38624,39573,129294,146420
2025-04-22 18:15:29.555,167648,38630,39585,129292,146425
2025-04-22 18:15:29.557,167631,38627,39584,129275,146421
2025-04-22 18:15:29.565,167659,38645,39588,129277,146445
2025-04-22 18:15:29.577,167648,38654,39577,129273,146447
2025-04-22 18:15:29.589,167649,38669,39590,129291,146427
2025-04-22 18:15:29.596,167644,38669,39587,129278,146419
2025-04-22 18:15:29.619,167652,38688,39597,129293,146441
2025-04-22 18:15:29.620,167664,38700,39595,129284,146446
2025-04-22 18:15:29.629,167666,38707,39594,129297,146445
2025-04-22 18:15:29.637,167656,38710,39604,129289,146431
2025-04-22 18:15:29.649,167663,38718,39607,129294,146446
2025-04-22 18:15:29.656,167675,38731,39609,129306,146463
2025-04-22 18:15:29.683,167660,38743,39607,129293,146453
2025-04-22 18:15:29.684,167667,38762,39607,129309,146457
2025-04-22 18:15:29.689,167682,38756,39617,129280,146464
2025-04-22 18:15:29.697,167675,38766,39611,129314,146465
2025-04-22 18:15:29.709,167676,38782,39619,129304,146467
2025-04-22 18:15:29.717,167654,38799,39620,129299,146468
2025-04-22 18:15:29.729,167692,38819,39622,129299,146478
2025-04-22 18:15:29.746,167675,38823,39626,129296,146470
2025-04-22 18:15:29.749,167671,38811,39629,129303,146480
2025-04-22 18:15:29.757,167699,38827,39630,129308,146487
2025-04-22 18:15:29.769,167665,38837,39633,129307,146475
2025-04-22 18:15:29.777,167680,38855,39636,129304,146490
2025-04-22 18:15:29.789,167673,38848,39645,129313,146496
2025-04-22 18:15:29.813,167656,38855,39635,129311,146495
2025-04-22 18:15:29.815,167640,38838,39639,129295,146477
2025-04-22 18:15:29.817,167620,38825,39621,129276,146443
2025-04-22 18:15:29.829,167591,38781,39612,129279,146429
2025-04-22 18:15:29.841,167563,38749,39595,129253,146397
2025-04-22 18:15:29.849,167540,38712,39580,129241,146389
2025-04-22 18:15:29.861,167522,38680,39571,129241,146364
2025-04-22 18:15:29.881,167519,38644,39566,129237,146339
2025-04-22 18:15:29.882,167522,38609,39546,129232,146325
2025-04-22 18:15:29.890,167515,38597,39543,129224,146347
2025-04-22 18:15:29.901,167518,38550,39529,129232,146342
2025-04-22 18:15:29.908,167527,38561,39524,129223,146328
2025-04-22 18:15:29.921,167524,38513,39518,129225,146316
2025-04-22 18:15:29.929,167531,38506,39501,129219,146308
2025-04-22 18:15:29.946,167532,38506,39489,129205,146331
2025-04-22 18:15:29.949,167534,38473,39494,129219,146315
2025-04-22 18:15:29.961,167530,38482,39486,129222,146324
2025-04-22 18:15:29.969,167528,38449,39471,129208,146316
2025-04-22 18:15:29.980,167529,38454,39471,129213,146309
2025-04-22 18:15:29.989,167526,38428,39460,129218,146314
2025-04-22 18:15:30.009,167530,38417,39447,129200,146327
2025-04-22 18:15:30.010,167521,38390,39450,129208,146300
2025-04-22 18:15:30.021,167516,38376,39424,129209,146308
2025-04-22 18:15:30.029,167485,38366,39426,129187,146293
2025-04-22 18:15:30.041,167500,38342,39412,129203,146292
2025-04-22 18:15:30.048,167504,38335,39398,129194,146285
2025-04-22 18:15:30.072,167507,38331,39391,129208,146280
2025-04-22 18:15:30.073,167504,38322,39388,129188,146276
2025-04-22 18:15:30.080,167496,38314,39374,129217,146284
2025-04-22 18:15:30.089,167503,38305,39354,129189,146289
2025-04-22 18:15:30.101,167492,38303,39360,129185,146283
2025-04-22 18:15:30.109,167492,38289,39334,129210,146278
2025-04-22 18:15:30.121,167479,38282,39359,129189,146284
2025-04-22 18:15:30.137,167494,38284,39334,129178,146296
2025-04-22 18:15:30.140,167493,38285,39334,129187,146291
2025-04-22 18:15:30.153,167492,38272,39339,129186,146290
2025-04-22 18:15:30.160,167510,38274,39302,129187,146293
2025-04-22 18:15:30.173,167499,38266,39329,129201,146279
2025-04-22 18:15:30.181,167493,38268,39304,129183,146281
2025-04-22 18:15:30.201,167482,38258,39300,129187,146271
2025-04-22 18:15:30.203,167483,38254,39301,129189,146265
2025-04-22 18:15:30.212,167470,38258,39293,129186,146281
2025-04-22 18:15:30.221,167472,38259,39278,129175,146285
2025-04-22 18:15:30.233,167482,38255,39283,129168,146268
2025-04-22 18:15:30.244,167463,38262,39274,129172,146276
2025-04-22 18:15:30.245,167463,38262,39274,129172,146276
2025-04-22 18:15:30.265,167479,38256,39277,129162,146276
2025-04-22 18:15:30.266,167473,38269,39270,129174,146265
2025-04-22 18:15:30.273,167486,38279,39270,129171,146283
2025-04-22 18:15:30.281,167471,38286,39267,129185,146280
2025-04-22 18:15:30.292,167473,38279,39269,129172,146262
2025-04-22 18:15:30.301,167498,38286,39264,129183,146284
2025-04-22 18:15:30.312,167499,38294,39257,129183,146312
2025-04-22 18:15:30.328,167479,38293,39265,129192,146282
2025-04-22 18:15:30.332,167506,38304,39255,129184,146292
2025-04-22 18:15:30.341,167482,38306,39259,129195,146299
2025-04-22 18:15:30.352,167495,38306,39264,129170,146304
2025-04-22 18:15:30.365,167495,38311,39258,129192,146295
2025-04-22 18:15:30.372,167490,38329,39255,129189,146299
2025-04-22 18:15:30.395,167500,38330,39262,129192,146317
2025-04-22 18:15:30.397,167497,38341,39257,129191,146307
2025-04-22 18:15:30.405,167505,38347,39267,129198,146312
2025-04-22 18:15:30.413,167483,38356,39264,129209,146313
2025-04-22 18:15:30.425,167499,38364,39262,129208,146307
2025-04-22 18:15:30.433,167492,38367,39258,129209,146332
2025-04-22 18:15:30.466,167515,38379,39258,129219,146320
2025-04-22 18:15:30.467,167505,38380,39266,129210,146324
2025-04-22 18:15:30.469,167511,38391,39263,129203,146321
2025-04-22 18:15:30.472,167502,38406,39258,129218,146318
2025-04-22 18:15:30.485,167501,38415,39261,129191,146335
2025-04-22 18:15:30.493,167500,38416,39258,129219,146336
2025-04-22 18:15:30.505,167518,38427,39261,129197,146339
2025-04-22 18:15:30.513,167522,38430,39261,129235,146345
2025-04-22 18:15:30.536,167514,38445,39267,129205,146357
2025-04-22 18:15:30.537,167535,38449,39274,129219,146351
2025-04-22 18:15:30.546,167539,38468,39265,129237,146343
2025-04-22 18:15:30.553,167515,38471,39277,129210,146350
2025-04-22 18:15:30.564,167539,38479,39273,129225,146367
2025-04-22 18:15:30.572,167540,38502,39270,129202,146370
2025-04-22 18:15:30.606,167515,38496,39277,129219,146375
2025-04-22 18:15:30.608,167529,38511,39281,129222,146361
2025-04-22 18:15:30.610,167528,38519,39280,129225,146373
2025-04-22 18:15:30.613,167519,38530,39288,129231,146388
2025-04-22 18:15:30.625,167527,38537,39289,129237,146379
2025-04-22 18:15:30.636,167543,38548,39291,129228,146372
2025-04-22 18:15:30.644,167540,38562,39288,129213,146391
2025-04-22 18:15:30.676,167529,38572,39289,129224,146396
2025-04-22 18:15:30.678,167535,38581,39297,129232,146413
2025-04-22 18:15:30.679,167536,38588,39288,129229,146399
2025-04-22 18:15:30.685,167543,38612,39294,129252,146395
2025-04-22 18:15:30.696,167556,38612,39306,129245,146423
2025-04-22 18:15:30.705,167535,38619,39317,129232,146383
2025-04-22 18:15:30.716,167527,38637,39309,129231,146433
2025-04-22 18:15:30.724,167554,38640,39318,129223,146394
2025-04-22 18:15:30.746,167551,38652,39314,129247,146421
2025-04-22 18:15:30.748,167550,38667,39311,129234,146433
2025-04-22 18:15:30.757,167547,38690,39312,129242,146400
2025-04-22 18:15:30.764,167563,38689,39318,129247,146428
2025-04-22 18:15:30.777,167557,38712,39322,129245,146411
2025-04-22 18:15:30.784,167559,38706,39335,129253,146426
2025-04-22 18:15:30.817,167561,38725,39340,129253,146423
2025-04-22 18:15:30.819,167575,38735,39343,129253,146424
2025-04-22 18:15:30.821,167566,38748,39347,129259,146434
2025-04-22 18:15:30.824,167572,38757,39341,129260,146450
2025-04-22 18:15:30.837,167564,38774,39357,129267,146445
2025-04-22 18:15:30.848,167557,38779,39349,129256,146453
2025-04-22 18:15:30.856,167575,38786,39342,129255,146436
2025-04-22 18:15:30.864,167542,38789,39355,129258,146450
2025-04-22 18:15:30.885,167517,38778,39357,129256,146432
2025-04-22 18:15:30.888,167487,38764,39356,129247,146424
2025-04-22 18:15:30.896,167462,38729,39334,129244,146412
2025-04-22 18:15:30.908,167441,38690,39316,129234,146378
2025-04-22 18:15:30.916,167426,38655,39304,129212,146354
2025-04-22 18:15:30.928,167421,38617,39304,129206,146346
2025-04-22 18:15:30.949,167405,38594,39270,129207,146323
2025-04-22 18:15:30.950,167382,38559,39268,129195,146323
2025-04-22 18:15:30.956,167405,38535,39249,129186,146301
2025-04-22 18:15:30.967,167414,38506,39246,129194,146314
2025-04-22 18:15:30.977,167409,38492,39226,129195,146308
2025-04-22 18:15:30.989,167404,38465,39211,129200,146318
2025-04-22 18:15:30.996,167415,38470,39207,129189,146322
2025-04-22 18:15:31.018,167413,38451,39195,129190,146315
2025-04-22 18:15:31.020,167394,38439,39178,129195,146319
2025-04-22 18:15:31.029,167404,38424,39179,129186,146308
2025-04-22 18:15:31.036,167415,38413,39183,129203,146316
2025-04-22 18:15:31.049,167390,38401,39165,129208,146311
2025-04-22 18:15:31.056,167396,38391,39147,129192,146292
2025-04-22 18:15:31.086,167392,38379,39148,129195,146302
2025-04-22 18:15:31.087,167376,38367,39140,129193,146308
2025-04-22 18:15:31.089,167375,38342,39129,129198,146301
2025-04-22 18:15:31.096,167379,38339,39121,129192,146293
2025-04-22 18:15:31.108,167374,38325,39102,129198,146294
2025-04-22 18:15:31.117,167394,38301,39100,129191,146302
2025-04-22 18:15:31.127,167373,38295,39095,129198,146310
2025-04-22 18:15:31.153,167374,38299,39081,129182,146288
2025-04-22 18:15:31.154,167383,38291,39067,129191,146300
2025-04-22 18:15:31.160,167383,38284,39064,129190,146290
2025-04-22 18:15:31.169,167375,38279,39063,129188,146299
2025-04-22 18:15:31.180,167390,38275,39057,129172,146289
2025-04-22 18:15:31.188,167384,38276,39049,129183,146296
2025-04-22 18:15:31.199,167397,38275,39033,129190,146292
2025-04-22 18:15:31.217,167383,38263,39033,129187,146306
2025-04-22 18:15:31.220,167390,38260,39021,129182,146295
2025-04-22 18:15:31.227,167369,38258,39020,129185,146288
2025-04-22 18:15:31.241,167358,38257,39006,129187,146296
2025-04-22 18:15:31.251,167372,38258,39007,129171,146294
2025-04-22 18:15:31.252,167372,38258,39007,129171,146294
2025-04-22 18:15:31.260,167373,38247,38996,129202,146296
2025-04-22 18:15:31.283,167386,38246,38982,129187,146299
2025-04-22 18:15:31.284,167362,38253,38985,129182,146296
2025-04-22 18:15:31.288,167380,38254,38986,129176,146306
2025-04-22 18:15:31.299,167386,38260,38975,129186,146306
2025-04-22 18:15:31.308,167385,38263,38966,129172,146295
2025-04-22 18:15:31.320,167372,38251,38967,129180,146315
2025-04-22 18:15:31.327,167378,38275,38960,129180,146301
2025-04-22 18:15:31.348,167386,38266,38966,129173,146302
2025-04-22 18:15:31.349,167376,38270,38959,129179,146298
2025-04-22 18:15:31.360,167380,38268,38954,129183,146299
2025-04-22 18:15:31.368,167381,38293,38958,129175,146309
2025-04-22 18:15:31.380,167376,38285,38947,129175,146319
2025-04-22 18:15:31.391,167374,38287,38944,129185,146311
2025-04-22 18:15:31.412,167394,38292,38951,129188,146308
2025-04-22 18:15:31.413,167391,38301,38945,129194,146313
2025-04-22 18:15:31.420,167390,38311,38947,129170,146321
2025-04-22 18:15:31.432,167381,38322,38943,129190,146335
2025-04-22 18:15:31.440,167390,38316,38955,129189,146319
2025-04-22 18:15:31.451,167405,38336,38946,129195,146324
2025-04-22 18:15:31.460,167401,38349,38944,129205,146328
2025-04-22 18:15:31.477,167399,38353,38954,129204,146329
2025-04-22 18:15:31.480,167406,38357,38954,129200,146348
2025-04-22 18:15:31.491,167400,38366,38943,129186,146339
2025-04-22 18:15:31.500,167406,38371,38947,129191,146339
2025-04-22 18:15:31.513,167409,38376,38947,129212,146332
2025-04-22 18:15:31.520,167410,38391,38939,129207,146330
2025-04-22 18:15:31.542,167411,38403,38941,129205,146344
2025-04-22 18:15:31.543,167402,38396,38944,129215,146355
2025-04-22 18:15:31.552,167411,38408,38951,129202,146368
2025-04-22 18:15:31.560,167415,38421,38950,129208,146361
2025-04-22 18:15:31.572,167409,38431,38954,129205,146360
2025-04-22 18:15:31.579,167411,38432,38963,129214,146359
2025-04-22 18:15:31.606,167407,38433,38948,129213,146361
2025-04-22 18:15:31.607,167428,38447,38952,129206,146349
2025-04-22 18:15:31.612,167417,38462,38946,129214,146366
2025-04-22 18:15:31.620,167430,38469,38950,129207,146371
2025-04-22 18:15:31.632,167422,38480,38957,129217,146386
2025-04-22 18:15:31.640,167432,38485,38956,129220,146389
2025-04-22 18:15:31.652,167429,38489,38955,129218,146378
2025-04-22 18:15:31.670,167417,38512,38959,129222,146403
2025-04-22 18:15:31.672,167434,38516,38966,129213,146387
2025-04-22 18:15:31.684,167447,38526,38966,129209,146392
2025-04-22 18:15:31.691,167426,38537,38970,129229,146391
2025-04-22 18:15:31.704,167426,38556,38961,129218,146407
2025-04-22 18:15:31.711,167440,38553,38957,129215,146392
2025-04-22 18:15:31.734,167434,38568,38975,129230,146403
2025-04-22 18:15:31.736,167464,38572,38972,129230,146394
2025-04-22 18:15:31.744,167449,38592,38977,129233,146396
2025-04-22 18:15:31.752,167460,38604,38977,129238,146412
2025-04-22 18:15:31.764,167449,38616,38968,129223,146428
2025-04-22 18:15:31.771,167460,38622,38985,129225,146426
2025-04-22 18:15:31.783,167439,38635,38987,129231,146441
2025-04-22 18:15:31.801,167445,38647,38988,129243,146434
2025-04-22 18:15:31.804,167449,38657,38992,129241,146431
2025-04-22 18:15:31.812,167459,38669,38995,129236,146430
2025-04-22 18:15:31.824,167462,38677,38996,129251,146439
2025-04-22 18:15:31.831,167481,38693,39008,129242,146427
2025-04-22 18:15:31.844,167465,38703,38994,129255,146434
2025-04-22 18:15:31.866,167457,38714,39014,129248,146439
2025-04-22 18:15:31.867,167475,38723,39017,129253,146451
2025-04-22 18:15:31.872,167472,38727,39024,129274,146464
2025-04-22 18:15:31.883,167466,38754,39028,129261,146462
2025-04-22 18:15:31.892,167469,38762,39025,129257,146487
2025-04-22 18:15:31.904,167491,38764,39025,129261,146475
2025-04-22 18:15:31.915,167452,38773,39028,129261,146457
2025-04-22 18:15:31.931,167450,38766,39029,129254,146467
2025-04-22 18:15:31.936,167426,38745,39013,129243,146434
2025-04-22 18:15:31.944,167401,38714,39003,129234,146425
2025-04-22 18:15:31.955,167370,38698,38991,129233,146404
2025-04-22 18:15:31.963,167337,38668,38984,129211,146393
2025-04-22 18:15:31.975,167348,38632,38961,129198,146361
2025-04-22 18:15:31.996,167332,38597,38946,129200,146357
2025-04-22 18:15:31.997,167331,38571,38926,129178,146341
2025-04-22 18:15:32.004,167317,38533,38915,129181,146329
2025-04-22 18:15:32.015,167337,38518,38899,129187,146332
2025-04-22 18:15:32.024,167327,38498,38885,129189,146328
2025-04-22 18:15:32.035,167344,38477,38876,129179,146326
2025-04-22 18:15:32.043,167333,38467,38870,129191,146323
2025-04-22 18:15:32.061,167337,38464,38863,129187,146321
2025-04-22 18:15:32.063,167348,38452,38858,129182,146334
2025-04-22 18:15:32.075,167339,38443,38852,129175,146320
2025-04-22 18:15:32.083,167353,38437,38850,129192,146327
2025-04-22 18:15:32.095,167341,38417,38842,129179,146324
2025-04-22 18:15:32.104,167326,38420,38829,129197,146353
2025-04-22 18:15:32.126,167354,38397,38821,129204,146318
2025-04-22 18:15:32.128,167330,38393,38814,129183,146320
2025-04-22 18:15:32.135,167308,38374,38787,129180,146326
2025-04-22 18:15:32.143,167319,38363,38786,129197,146325
2025-04-22 18:15:32.156,167339,38347,38779,129182,146312
2025-04-22 18:15:32.167,167309,38343,38760,129191,146327
2025-04-22 18:15:32.175,167338,38331,38748,129187,146306
2025-04-22 18:15:32.191,167318,38334,38752,129189,146315
2025-04-22 18:15:32.195,167323,38320,38735,129186,146316
2025-04-22 18:15:32.207,167324,38320,38725,129185,146328
2025-04-22 18:15:32.215,167316,38314,38721,129198,146314
2025-04-22 18:15:32.227,167309,38307,38713,129189,146324
2025-04-22 18:15:32.234,167320,38313,38697,129183,146324
2025-04-22 18:15:32.254,167298,38299,38691,129190,146316
2025-04-22 18:15:32.259,167311,38302,38690,129188,146313
2025-04-22 18:15:32.260,167311,38302,38690,129188,146313
2025-04-22 18:15:32.267,167300,38300,38682,129190,146320
2025-04-22 18:15:32.276,167331,38292,38668,129205,146327
2025-04-22 18:15:32.287,167318,38298,38662,129184,146328
2025-04-22 18:15:32.295,167327,38289,38661,129209,146324
2025-04-22 18:15:32.319,167310,38277,38652,129191,146324
2025-04-22 18:15:32.321,167322,38289,38642,129207,146333
2025-04-22 18:15:32.328,167308,38290,38649,129184,146331
2025-04-22 18:15:32.335,167328,38286,38630,129188,146338
2025-04-22 18:15:32.347,167302,38288,38633,129196,146331
2025-04-22 18:15:32.355,167318,38297,38618,129184,146341
2025-04-22 18:15:32.366,167318,38294,38628,129200,146337
2025-04-22 18:15:32.384,167307,38300,38604,129189,146356
2025-04-22 18:15:32.387,167326,38305,38618,129192,146328
2025-04-22 18:15:32.395,167308,38311,38608,129202,146329
2025-04-22 18:15:32.407,167317,38318,38602,129189,146336
2025-04-22 18:15:32.419,167317,38328,38611,129200,146346
2025-04-22 18:15:32.427,167320,38340,38604,129189,146362
2025-04-22 18:15:32.449,167343,38337,38609,129209,146344
2025-04-22 18:15:32.451,167332,38344,38600,129211,146351
2025-04-22 18:15:32.459,167330,38355,38609,129197,146355
2025-04-22 18:15:32.466,167323,38365,38600,129211,146350
2025-04-22 18:15:32.479,167343,38366,38595,129206,146363
2025-04-22 18:15:32.487,167322,38370,38603,129198,146375
2025-04-22 18:15:32.514,167331,38386,38596,129205,146365
2025-04-22 18:15:32.515,167324,38390,38597,129210,146366
2025-04-22 18:15:32.519,167330,38397,38598,129195,146385
2025-04-22 18:15:32.527,167341,38406,38603,129216,146383
2025-04-22 18:15:32.539,167336,38411,38599,129224,146399
2025-04-22 18:15:32.546,167321,38419,38601,129217,146371
2025-04-22 18:15:32.559,167334,38423,38604,129223,146383
2025-04-22 18:15:32.579,167347,38434,38601,129214,146386
2025-04-22 18:15:32.580,167355,38437,38599,129218,146408
2025-04-22 18:15:32.587,167355,38451,38601,129220,146377
2025-04-22 18:15:32.599,167333,38456,38599,129200,146401
2025-04-22 18:15:32.607,167352,38471,38602,129224,146385
2025-04-22 18:15:32.619,167351,38476,38602,129217,146397
2025-04-22 18:15:32.628,167350,38482,38606,129201,146391
2025-04-22 18:15:32.648,167340,38492,38609,129221,146389
2025-04-22 18:15:32.651,167363,38504,38595,129221,146417
2025-04-22 18:15:32.659,167367,38513,38607,129217,146413
2025-04-22 18:15:32.671,167361,38510,38595,129220,146402
2025-04-22 18:15:32.680,167359,38529,38609,129219,146407
2025-04-22 18:15:32.692,167370,38537,38603,129222,146416
2025-04-22 18:15:32.717,167366,38560,38608,129229,146415
2025-04-22 18:15:32.719,167349,38553,38622,129233,146404
2025-04-22 18:15:32.721,167375,38563,38608,129212,146405
2025-04-22 18:15:32.731,167367,38578,38607,129215,146431
2025-04-22 18:15:32.739,167382,38584,38626,129209,146424
2025-04-22 18:15:32.751,167384,38595,38621,129209,146421
2025-04-22 18:15:32.759,167387,38604,38617,129208,146413
2025-04-22 18:15:32.783,167385,38603,38617,129219,146421
2025-04-22 18:15:32.785,167391,38629,38618,129205,146445
2025-04-22 18:15:32.792,167393,38642,38624,129227,146426
2025-04-22 18:15:32.799,167409,38657,38636,129231,146424
2025-04-22 18:15:32.811,167384,38662,38618,129231,146444
2025-04-22 18:15:32.819,167385,38671,38621,129224,146439
2025-04-22 18:15:32.831,167389,38679,38647,129231,146432
2025-04-22 18:15:32.848,167397,38694,38647,129228,146471
2025-04-22 18:15:32.851,167387,38701,38640,129235,146436
2025-04-22 18:15:32.859,167401,38711,38646,129233,146434
2025-04-22 18:15:32.871,167400,38729,38652,129225,146447
2025-04-22 18:15:32.879,167402,38740,38650,129233,146439
2025-04-22 18:15:32.890,167401,38736,38651,129217,146430
2025-04-22 18:15:32.912,167420,38753,38649,129232,146458
2025-04-22 18:15:32.914,167409,38768,38668,129234,146447
2025-04-22 18:15:32.918,167427,38778,38659,129223,146455
2025-04-22 18:15:32.930,167421,38782,38663,129229,146445
2025-04-22 18:15:32.942,167430,38806,38666,129225,146458
2025-04-22 18:15:32.951,167422,38820,38672,129241,146462
2025-04-22 18:15:32.979,167429,38822,38674,129242,146450
2025-04-22 18:15:32.980,167433,38832,38669,129240,146433
2025-04-22 18:15:32.982,167427,38847,38680,129236,146462
2025-04-22 18:15:32.991,167440,38852,38681,129251,146463
2025-04-22 18:15:33.003,167416,38857,38692,129222,146464
2025-04-22 18:15:33.010,167398,38848,38679,129227,146436
2025-04-22 18:15:33.023,167375,38833,38667,129221,146416
2025-04-22 18:15:33.047,167348,38814,38658,129209,146414
2025-04-22 18:15:33.048,167320,38779,38643,129196,146389
2025-04-22 18:15:33.050,167304,38738,38623,129182,146386
2025-04-22 18:15:33.063,167291,38714,38610,129170,146376
2025-04-22 18:15:33.071,167287,38683,38588,129170,146331
2025-04-22 18:15:33.083,167276,38647,38570,129141,146336
2025-04-22 18:15:33.091,167268,38623,38547,129145,146320
2025-04-22 18:15:33.113,167273,38601,38537,129136,146313
2025-04-22 18:15:33.114,167287,38588,38522,129155,146300
2025-04-22 18:15:33.122,167279,38573,38512,129151,146297
2025-04-22 18:15:33.130,167291,38555,38492,129130,146302
2025-04-22 18:15:33.143,167291,38545,38477,129132,146309
2025-04-22 18:15:33.150,167285,38535,38474,129139,146295
2025-04-22 18:15:33.176,167290,38521,38460,129139,146301
2025-04-22 18:15:33.177,167304,38526,38457,129152,146293
2025-04-22 18:15:33.183,167299,38516,38446,129155,146305
2025-04-22 18:15:33.194,167277,38506,38434,129127,146295
2025-04-22 18:15:33.203,167290,38501,38416,129147,146286
2025-04-22 18:15:33.214,167278,38481,38416,129140,146305
2025-04-22 18:15:33.222,167267,38479,38404,129128,146291
2025-04-22 18:15:33.242,167291,38455,38392,129127,146289
2025-04-22 18:15:33.243,167272,38436,38379,129151,146305
2025-04-22 18:15:33.255,167275,38435,38372,129138,146297
2025-04-22 18:15:33.267,167288,38440,38358,129142,146292
2025-04-22 18:15:33.268,167288,38440,38358,129142,146292
2025-04-22 18:15:33.274,167291,38420,38336,129127,146264
2025-04-22 18:15:33.282,167270,38406,38346,129131,146284
2025-04-22 18:15:33.305,167296,38406,38331,129138,146287
2025-04-22 18:15:33.306,167287,38408,38322,129126,146265
2025-04-22 18:15:33.315,167268,38404,38303,129134,146303
2025-04-22 18:15:33.322,167264,38398,38286,129119,146294
2025-04-22 18:15:33.334,167270,38391,38293,129123,146285
2025-04-22 18:15:33.342,167262,38381,38280,129134,146283
2025-04-22 18:15:33.354,167284,38385,38263,129123,146281
2025-04-22 18:15:33.370,167270,38359,38257,129119,146286
2025-04-22 18:15:33.374,167252,38372,38249,129128,146266
2025-04-22 18:15:33.382,167268,38382,38242,129094,146264
2025-04-22 18:15:33.394,167257,38380,38239,129125,146269
2025-04-22 18:15:33.401,167280,38367,38230,129120,146251
2025-04-22 18:15:33.414,167240,38371,38228,129127,146261
2025-04-22 18:15:33.433,167273,38369,38215,129106,146271
2025-04-22 18:15:33.434,167258,38389,38208,129110,146263
2025-04-22 18:15:33.442,167251,38380,38209,129115,146271
2025-04-22 18:15:33.455,167272,38375,38207,129112,146271
2025-04-22 18:15:33.467,167261,38386,38194,129099,146277
2025-04-22 18:15:33.474,167274,38392,38191,129100,146282
2025-04-22 18:15:33.497,167247,38396,38190,129100,146264
2025-04-22 18:15:33.499,167270,38405,38190,129122,146285
2025-04-22 18:15:33.507,167266,38402,38191,129133,146294
2025-04-22 18:15:33.515,167271,38400,38187,129125,146294
2025-04-22 18:15:33.526,167289,38407,38181,129100,146295
2025-04-22 18:15:33.535,167294,38416,38181,129126,146302
2025-04-22 18:15:33.546,167279,38414,38161,129122,146297
2025-04-22 18:15:33.564,167279,38421,38180,129106,146306
2025-04-22 18:15:33.566,167281,38433,38179,129115,146283
2025-04-22 18:15:33.574,167296,38440,38168,129124,146287
2025-04-22 18:15:33.586,167284,38447,38175,129120,146288
2025-04-22 18:15:33.594,167286,38451,38162,129125,146291
2025-04-22 18:15:33.606,167296,38459,38175,129128,146305
2025-04-22 18:15:33.629,167289,38451,38169,129121,146289
2025-04-22 18:15:33.630,167294,38486,38169,129110,146305
2025-04-22 18:15:33.635,167289,38464,38165,129124,146298
2025-04-22 18:15:33.645,167295,38482,38160,129136,146315
2025-04-22 18:15:33.654,167289,38486,38168,129131,146317
2025-04-22 18:15:33.665,167306,38489,38176,129109,146301
2025-04-22 18:15:33.674,167316,38519,38173,129125,146321
2025-04-22 18:15:33.694,167307,38497,38167,129122,146320
2025-04-22 18:15:33.695,167340,38529,38171,129143,146324
2025-04-22 18:15:33.706,167320,38511,38174,129125,146319
2025-04-22 18:15:33.718,167319,38535,38175,129125,146315
2025-04-22 18:15:33.726,167325,38539,38171,129126,146330
2025-04-22 18:15:33.738,167358,38551,38174,129129,146328
2025-04-22 18:15:33.759,167332,38559,38174,129132,146337
2025-04-22 18:15:33.761,167330,38576,38173,129133,146342
2025-04-22 18:15:33.766,167359,38582,38169,129123,146325
2025-04-22 18:15:33.778,167325,38586,38182,129131,146333
2025-04-22 18:15:33.786,167342,38589,38178,129145,146348
2025-04-22 18:15:33.797,167334,38603,38171,129152,146340
2025-04-22 18:15:33.807,167327,38607,38178,129136,146353
2025-04-22 18:15:33.829,167329,38616,38183,129156,146350
2025-04-22 18:15:33.830,167332,38628,38178,129144,146356
2025-04-22 18:15:33.837,167339,38647,38189,129141,146365
2025-04-22 18:15:33.845,167332,38638,38167,129142,146343
2025-04-22 18:15:33.858,167356,38657,38202,129141,146367
2025-04-22 18:15:33.866,167344,38658,38176,129135,146367
2025-04-22 18:15:33.877,167334,38669,38197,129133,146362
2025-04-22 18:15:33.898,167341,38677,38198,129140,146373
2025-04-22 18:15:33.900,167364,38691,38183,129155,146361
2025-04-22 18:15:33.906,167373,38702,38208,129154,146381
2025-04-22 18:15:33.918,167360,38717,38187,129133,146355
2025-04-22 18:15:33.926,167374,38722,38210,129147,146372
2025-04-22 18:15:33.938,167370,38729,38190,129146,146361
2025-04-22 18:15:33.966,167358,38750,38202,129166,146377
2025-04-22 18:15:33.967,167354,38752,38205,129151,146400
2025-04-22 18:15:33.970,167351,38758,38210,129163,146389
2025-04-22 18:15:33.978,167335,38753,38196,129154,146393
2025-04-22 18:15:33.990,167314,38756,38203,129144,146395
2025-04-22 18:15:33.998,167291,38744,38191,129148,146372
2025-04-22 18:15:34.010,167273,38718,38195,129149,146351
2025-04-22 18:15:34.034,167255,38689,38164,129143,146332
2025-04-22 18:15:34.035,167246,38654,38149,129116,146310
2025-04-22 18:15:34.037,167228,38624,38131,129079,146288
2025-04-22 18:15:34.050,167214,38596,38110,129106,146281
2025-04-22 18:15:34.058,167220,38572,38094,129092,146269
2025-04-22 18:15:34.069,167202,38531,38062,129085,146265
2025-04-22 18:15:34.078,167213,38528,38044,129097,146268
2025-04-22 18:15:34.102,167204,38508,38031,129094,146251
2025-04-22 18:15:34.103,167221,38482,38011,129082,146249
2025-04-22 18:15:34.110,167213,38476,38005,129076,146247
2025-04-22 18:15:34.118,167227,38460,37983,129073,146232
2025-04-22 18:15:34.130,167225,38458,37977,129088,146261
2025-04-22 18:15:34.138,167227,38447,37962,129085,146252
2025-04-22 18:15:34.149,167227,38450,37956,129094,146277
2025-04-22 18:15:34.171,167225,38428,37943,129095,146261
2025-04-22 18:15:34.172,167217,38424,37925,129088,146261
2025-04-22 18:15:34.178,167224,38420,37916,129088,146267
2025-04-22 18:15:34.191,167199,38404,37906,129082,146272
2025-04-22 18:15:34.198,167204,38392,37897,129071,146236
2025-04-22 18:15:34.210,167203,38390,37886,129070,146256
2025-04-22 18:15:34.242,167228,38369,37872,129064,146250
2025-04-22 18:15:34.244,167206,38366,37859,129078,146252
2025-04-22 18:15:34.245,167215,38356,37844,129085,146250
2025-04-22 18:15:34.250,167194,38354,37833,129079,146236
2025-04-22 18:15:34.262,167191,38350,37822,129075,146229
2025-04-22 18:15:34.274,167192,38353,37820,129067,146245
2025-04-22 18:15:34.275,167192,38353,37820,129067,146245
2025-04-22 18:15:34.282,167192,38343,37801,129033,146245
2025-04-22 18:15:34.289,167183,38341,37803,129075,146239
2025-04-22 18:15:34.310,167200,38331,37784,129047,146229
2025-04-22 18:15:34.312,167202,38332,37770,129082,146232
2025-04-22 18:15:34.321,167182,38320,37763,129065,146224
2025-04-22 18:15:34.330,167210,38313,37753,129062,146227
2025-04-22 18:15:34.341,167189,38314,37746,129079,146225
2025-04-22 18:15:34.350,167171,38312,37729,129040,146229
2025-04-22 18:15:34.378,167191,38296,37730,129057,146221
2025-04-22 18:15:34.380,167184,38311,37721,129048,146226
2025-04-22 18:15:34.381,167189,38304,37715,129065,146223
2025-04-22 18:15:34.390,167193,38306,37710,129071,146219
2025-04-22 18:15:34.402,167190,38310,37701,129059,146230
2025-04-22 18:15:34.410,167188,38301,37687,129065,146247
2025-04-22 18:15:34.421,167196,38319,37691,129071,146236
2025-04-22 18:15:34.452,167211,38318,37686,129058,146218
2025-04-22 18:15:34.454,167185,38314,37681,129054,146243
2025-04-22 18:15:34.455,167185,38317,37681,129057,146218
2025-04-22 18:15:34.461,167167,38321,37666,129076,146214
2025-04-22 18:15:34.473,167215,38330,37675,129056,146245
2025-04-22 18:15:34.481,167189,38332,37654,129073,146224
2025-04-22 18:15:34.494,167189,38337,37664,129048,146251
2025-04-22 18:15:34.527,167185,38344,37659,129066,146227
2025-04-22 18:15:34.528,167212,38348,37659,129050,146247
2025-04-22 18:15:34.530,167211,38347,37658,129070,146231
2025-04-22 18:15:34.534,167229,38356,37654,129052,146251
2025-04-22 18:15:34.542,167214,38364,37658,129071,146267
2025-04-22 18:15:34.553,167217,38376,37663,129077,146220
2025-04-22 18:15:34.561,167215,38378,37651,129080,146274
2025-04-22 18:15:34.573,167204,38382,37647,129079,146250
2025-04-22 18:15:34.599,167209,38394,37651,129082,146260
2025-04-22 18:15:34.601,167210,38396,37651,129079,146250
2025-04-22 18:15:34.602,167202,38399,37642,129080,146279
2025-04-22 18:15:34.613,167197,38410,37646,129075,146260
2025-04-22 18:15:34.622,167218,38416,37640,129077,146288
2025-04-22 18:15:34.634,167223,38426,37638,129085,146240
2025-04-22 18:15:34.641,167209,38419,37635,129081,146259
2025-04-22 18:15:34.667,167225,38427,37632,129072,146269
2025-04-22 18:15:34.668,167224,38435,37639,129089,146280
2025-04-22 18:15:34.673,167221,38435,37630,129082,146254
2025-04-22 18:15:34.682,167222,38454,37628,129069,146253
2025-04-22 18:15:34.694,167227,38461,37632,129082,146268
2025-04-22 18:15:34.701,167233,38455,37640,129069,146279
2025-04-22 18:15:34.713,167246,38477,37636,129085,146267
2025-04-22 18:15:34.736,167234,38474,37637,129086,146281
2025-04-22 18:15:34.738,167226,38482,37639,129073,146296
2025-04-22 18:15:34.746,167228,38488,37629,129091,146301
2025-04-22 18:15:34.753,167233,38485,37634,129075,146280
2025-04-22 18:15:34.766,167224,38495,37632,129069,146279
2025-04-22 18:15:34.774,167226,38515,37635,129086,146291
2025-04-22 18:15:34.785,167230,38519,37636,129081,146277
2025-04-22 18:15:34.810,167230,38522,37631,129084,146288
2025-04-22 18:15:34.811,167242,38550,37642,129088,146291
2025-04-22 18:15:34.813,167250,38550,37635,129075,146301
2025-04-22 18:15:34.825,167253,38556,37637,129085,146285
2025-04-22 18:15:34.833,167270,38569,37648,129093,146316
2025-04-22 18:15:34.845,167261,38574,37640,129098,146311
2025-04-22 18:15:34.853,167238,38585,37637,129087,146297
2025-04-22 18:15:34.886,167236,38602,37638,129089,146312
2025-04-22 18:15:34.888,167234,38589,37634,129094,146309
2025-04-22 18:15:34.889,167215,38583,37635,129080,146304
2025-04-22 18:15:34.893,167177,38573,37624,129074,146310
2025-04-22 18:15:34.905,167157,38539,37619,129079,146289
2025-04-22 18:15:34.914,167145,38510,37598,129052,146250
2025-04-22 18:15:34.925,167112,38480,37578,129047,146237
2025-04-22 18:15:34.934,167121,38448,37554,129026,146210
2025-04-22 18:15:34.958,167093,38405,37525,129019,146186
2025-04-22 18:15:34.960,167098,38374,37513,129010,146169
2025-04-22 18:15:34.965,167074,38339,37478,129001,146152
2025-04-22 18:15:34.973,167082,38320,37448,129006,146157
2025-04-22 18:15:34.985,167071,38296,37445,129004,146149
2025-04-22 18:15:34.997,167073,38269,37410,129005,146167
2025-04-22 18:15:35.006,167091,38250,37408,128990,146133
2025-04-22 18:15:35.034,167083,38247,37380,129002,146158
2025-04-22 18:15:35.036,167082,38230,37369,128989,146137
2025-04-22 18:15:35.038,167097,38215,37359,128992,146155
2025-04-22 18:15:35.045,167071,38207,37343,129002,146147
2025-04-22 18:15:35.057,167094,38188,37337,129008,146157
2025-04-22 18:15:35.065,167074,38185,37321,129008,146144
2025-04-22 18:15:35.077,167097,38176,37313,129001,146133
2025-04-22 18:15:35.103,167066,38156,37313,129007,146155
2025-04-22 18:15:35.104,167062,38155,37275,129005,146159
2025-04-22 18:15:35.106,167070,38130,37268,129015,146152
2025-04-22 18:15:35.118,167067,38126,37259,129005,146140
2025-04-22 18:15:35.126,167091,38115,37231,129007,146144
2025-04-22 18:15:35.137,167077,38107,37225,129014,146167
2025-04-22 18:15:35.145,167076,38093,37203,129018,146154
2025-04-22 18:15:35.172,167075,38072,37196,129001,146158
2025-04-22 18:15:35.173,167060,38083,37184,129011,146142
2025-04-22 18:15:35.177,167069,38080,37178,129012,146134
2025-04-22 18:15:35.185,167066,38071,37168,129002,146150
2025-04-22 18:15:35.198,167070,38064,37158,128986,146133
2025-04-22 18:15:35.205,167076,38054,37147,128999,146139
2025-04-22 18:15:35.216,167069,38046,37136,129005,146147
2025-04-22 18:15:35.239,167063,38054,37134,129008,146153
2025-04-22 18:15:35.240,167045,38043,37123,129008,146132
2025-04-22 18:15:35.249,167054,38041,37122,129004,146151
2025-04-22 18:15:35.257,167062,38037,37089,128990,146132
2025-04-22 18:15:35.269,167052,38023,37084,128987,146138
2025-04-22 18:15:35.276,167054,38023,37077,128994,146136
2025-04-22 18:15:35.281,167054,38023,37077,128994,146136
2025-04-22 18:15:35.304,167058,38019,37062,128977,146126
2025-04-22 18:15:35.305,167038,38014,37058,128987,146127
2025-04-22 18:15:35.309,167047,38024,37040,129002,146116
2025-04-22 18:15:35.317,167047,38019,37040,128981,146121
2025-04-22 18:15:35.329,167064,38020,37030,128990,146135
2025-04-22 18:15:35.337,167040,38016,37035,128999,146128
2025-04-22 18:15:35.348,167062,38019,37023,128980,146135
2025-04-22 18:15:35.369,167038,38030,37016,128998,146128
2025-04-22 18:15:35.370,167052,38028,37009,128994,146121
2025-04-22 18:15:35.376,167047,38014,37003,128981,146122
2025-04-22 18:15:35.389,167045,38031,37001,128999,146116
2025-04-22 18:15:35.397,167041,38026,37003,128987,146142
2025-04-22 18:15:35.408,167054,38037,36992,128972,146117
2025-04-22 18:15:35.417,167043,38040,36996,128984,146137
2025-04-22 18:15:35.438,167052,38055,37002,128991,146141
2025-04-22 18:15:35.440,167062,38051,36996,129005,146146
2025-04-22 18:15:35.449,167060,38060,36998,128994,146144
2025-04-22 18:15:35.457,167054,38060,36994,129010,146152
2025-04-22 18:15:35.468,167056,38069,36992,129011,146152
2025-04-22 18:15:35.481,167051,38073,36991,128998,146152
2025-04-22 18:15:35.504,167061,38076,36991,128992,146156
2025-04-22 18:15:35.505,167050,38084,36990,128985,146147
2025-04-22 18:15:35.509,167053,38091,36983,128998,146159
2025-04-22 18:15:35.520,167057,38095,36994,129000,146148
2025-04-22 18:15:35.529,167048,38095,36983,128994,146151
2025-04-22 18:15:35.541,167079,38108,36986,128992,146162
2025-04-22 18:15:35.548,167074,38104,36977,128991,146173
2025-04-22 18:15:35.569,167060,38118,36981,128999,146151
2025-04-22 18:15:35.571,167085,38123,36983,129008,146156
2025-04-22 18:15:35.581,167075,38127,36993,129003,146150
2025-04-22 18:15:35.589,167065,38137,36986,128997,146175
2025-04-22 18:15:35.600,167060,38143,36986,128997,146161
2025-04-22 18:15:35.609,167078,38154,36986,129018,146170
2025-04-22 18:15:35.634,167076,38156,36976,128999,146173
2025-04-22 18:15:35.635,167080,38161,36974,129006,146162
2025-04-22 18:15:35.641,167073,38163,36987,129005,146170
2025-04-22 18:15:35.648,167091,38171,36989,129007,146157
2025-04-22 18:15:35.661,167097,38184,36988,128997,146167
2025-04-22 18:15:35.668,167084,38192,36980,129000,146160
2025-04-22 18:15:35.680,167095,38197,36985,129007,146176
2025-04-22 18:15:35.698,167089,38216,36989,128995,146181
2025-04-22 18:15:35.700,167107,38213,36992,129010,146190
2025-04-22 18:15:35.708,167098,38215,36992,128997,146177
2025-04-22 18:15:35.720,167116,38232,36985,128994,146179
2025-04-22 18:15:35.728,167090,38237,36990,128987,146172
2025-04-22 18:15:35.741,167108,38255,36994,128984,146189
2025-04-22 18:15:35.764,167123,38264,36992,128996,146199
2025-04-22 18:15:35.765,167102,38272,37000,129006,146194
2025-04-22 18:15:35.773,167104,38265,37000,129003,146191
2025-04-22 18:15:35.780,167096,38291,37004,129006,146199
2025-04-22 18:15:35.793,167121,38299,37000,128996,146199
2025-04-22 18:15:35.800,167107,38309,37007,129004,146193
2025-04-22 18:15:35.813,167100,38309,37010,129006,146210
2025-04-22 18:15:35.829,167081,38309,37012,129005,146205
2025-04-22 18:15:35.832,167065,38297,37004,128999,146201
2025-04-22 18:15:35.840,167040,38270,36994,128989,146179
2025-04-22 18:15:35.853,167000,38249,36987,128976,146134
2025-04-22 18:15:35.860,166985,38208,36966,128959,146115
2025-04-22 18:15:35.872,166987,38167,36936,128963,146096
2025-04-22 18:15:35.900,166974,38131,36905,128949,146070
2025-04-22 18:15:35.902,166930,38098,36877,128941,146063
2025-04-22 18:15:35.903,166940,38068,36873,128917,146053
2025-04-22 18:15:35.912,166932,38028,36846,128925,146046
2025-04-22 18:15:35.920,166936,37995,36820,128922,146047
2025-04-22 18:15:35.933,166935,37972,36799,128904,146031
2025-04-22 18:15:35.941,166908,37949,36774,128918,146048
2025-04-22 18:15:35.967,166943,37929,36753,128927,146046
2025-04-22 18:15:35.969,166928,37917,36742,128904,146034
2025-04-22 18:15:35.972,166930,37897,36729,128925,146040
2025-04-22 18:15:35.981,166921,37885,36708,128919,146051
2025-04-22 18:15:35.992,166936,37864,36687,128929,146030
2025-04-22 18:15:36.000,166919,37849,36689,128932,146036
2025-04-22 18:15:36.012,166921,37834,36666,128902,146004
2025-04-22 18:15:36.034,166904,37806,36647,128904,146008
2025-04-22 18:15:36.036,166904,37794,36616,128899,145991
2025-04-22 18:15:36.044,166874,37757,36607,128902,146003
2025-04-22 18:15:36.052,166896,37736,36578,128900,145987
2025-04-22 18:15:36.064,166860,37722,36566,128888,146007
2025-04-22 18:15:36.072,166872,37705,36562,128886,145981
2025-04-22 18:15:36.100,166896,37692,36535,128893,145977
2025-04-22 18:15:36.101,166884,37678,36527,128915,145975
2025-04-22 18:15:36.104,166889,37675,36514,128898,145987
2025-04-22 18:15:36.113,166893,37663,36496,128901,145993
2025-04-22 18:15:36.125,166884,37661,36487,128896,145967
2025-04-22 18:15:36.133,166907,37656,36479,128905,145982
2025-04-22 18:15:36.145,166907,37660,36487,128894,145975
2025-04-22 18:15:36.166,166886,37644,36457,128905,145983
2025-04-22 18:15:36.168,166905,37637,36442,128907,145976
2025-04-22 18:15:36.172,166876,37629,36443,128905,145963
2025-04-22 18:15:36.185,166881,37619,36427,128890,145943
2025-04-22 18:15:36.192,166880,37602,36418,128874,145947
2025-04-22 18:15:36.204,166884,37602,36405,128872,145955
2025-04-22 18:15:36.211,166885,37611,36388,128859,145946
2025-04-22 18:15:36.236,166876,37586,36392,128872,145921
2025-04-22 18:15:36.237,166877,37587,36365,128872,145924
2025-04-22 18:15:36.244,166874,37574,36362,128856,145909
2025-04-22 18:15:36.252,166869,37586,36340,128853,145906
2025-04-22 18:15:36.264,166883,37575,36338,128836,145911
2025-04-22 18:15:36.273,166849,37561,36335,128826,145889
2025-04-22 18:15:36.285,166874,37558,36322,128823,145880
2025-04-22 18:15:36.308,166852,37552,36310,128817,145888
2025-04-22 18:15:36.309,166846,37555,36299,128809,145876
2025-04-22 18:15:36.316,166854,37553,36287,128794,145842
2025-04-22 18:15:36.324,166843,37548,36276,128777,145850
2025-04-22 18:15:36.336,166849,37543,36274,128780,145831
2025-04-22 18:15:36.344,166829,37540,36263,128767,145818
2025-04-22 18:15:36.356,166835,37539,36248,128761,145797
2025-04-22 18:15:36.374,166806,37541,36229,128749,145809
2025-04-22 18:15:36.376,166803,37545,36225,128739,145782
2025-04-22 18:15:36.384,166796,37530,36211,128727,145774
2025-04-22 18:15:36.395,166801,37529,36206,128715,145777
2025-04-22 18:15:36.404,166820,37529,36193,128713,145781
2025-04-22 18:15:36.415,166798,37539,36190,128704,145741
2025-04-22 18:15:36.439,166795,37541,36184,128693,145723
2025-04-22 18:15:36.440,166805,37547,36189,128679,145740
2025-04-22 18:15:36.444,166794,37547,36168,128678,145727
2025-04-22 18:15:36.456,166779,37546,36169,128700,145734
2025-04-22 18:15:36.464,166772,37560,36171,128690,145757
2025-04-22 18:15:36.476,166791,37559,36170,128688,145746
2025-04-22 18:15:36.489,166775,37563,36165,128704,145752
2025-04-22 18:15:36.507,166775,37563,36165,128704,145752
2025-04-22 18:15:36.509,166763,37566,36166,128727,145753
2025-04-22 18:15:36.510,166755,37551,36144,128735,145758
2025-04-22 18:15:36.516,166737,37541,36128,128700,145725
2025-04-22 18:15:36.524,166719,37528,36094,128674,145696
2025-04-22 18:15:36.536,166738,37509,36078,128659,145663
2025-04-22 18:15:36.548,166734,37487,36056,128648,145630
2025-04-22 18:15:36.556,166728,37454,36025,128606,145577
2025-04-22 18:15:36.581,166749,37429,35997,128575,145515
2025-04-22 18:15:36.583,166772,37391,35958,128526,145462
2025-04-22 18:15:36.588,166773,37359,35919,128483,145378
2025-04-22 18:15:36.596,166764,37331,35870,128455,145334
2025-04-22 18:15:36.608,166775,37292,35825,128418,145261
2025-04-22 18:15:36.616,166721,37248,35792,128380,145200
2025-04-22 18:15:36.628,166711,37191,35754,128295,145115
2025-04-22 18:15:36.646,166681,37127,35692,128238,145041
2025-04-22 18:15:36.648,166673,37064,35630,128152,144912
2025-04-22 18:15:36.657,166656,36979,35554,128052,144766
2025-04-22 18:15:36.668,166626,36925,35486,127960,144671
2025-04-22 18:15:36.675,166597,36872,35417,127889,144572
2025-04-22 18:15:36.688,166571,36842,35356,127834,144481
2025-04-22 18:15:36.710,166544,36837,35326,127832,144488
2025-04-22 18:15:36.712,166553,36839,35313,127850,144491
2025-04-22 18:15:36.716,166552,36838,35301,127874,144524
2025-04-22 18:15:36.728,166544,36833,35294,127876,144510
2025-04-22 18:15:36.735,166536,36833,35292,127888,144526
2025-04-22 18:15:36.748,166503,36803,35289,127900,144523
2025-04-22 18:15:36.756,166488,36809,35256,127912,144531
2025-04-22 18:15:36.776,166455,36801,35237,127894,144513
2025-04-22 18:15:36.777,166460,36774,35213,127855,144482
2025-04-22 18:15:36.787,166436,36761,35189,127838,144459
2025-04-22 18:15:36.795,166431,36738,35170,127826,144425
2025-04-22 18:15:36.808,166418,36705,35163,127795,144426
2025-04-22 18:15:36.819,166386,36666,35150,127801,144403
2025-04-22 18:15:36.844,166395,36630,35111,127781,144370
2025-04-22 18:15:36.846,166354,36571,35088,127757,144338
2025-04-22 18:15:36.848,166357,36514,35050,127737,144328
2025-04-22 18:15:36.859,166307,36445,35014,127718,144290
2025-04-22 18:15:36.868,166317,36400,34960,127653,144235
2025-04-22 18:15:36.880,166299,36361,34948,127637,144239
2025-04-22 18:15:36.888,166274,36283,34887,127632,144233
2025-04-22 18:15:36.908,166242,36215,34813,127587,144163
2025-04-22 18:15:36.910,166269,36182,34759,127522,144099
2025-04-22 18:15:36.920,166277,36160,34732,127469,144061
2025-04-22 18:15:36.928,166262,36125,34714,127405,144009
2025-04-22 18:15:36.939,166206,36074,34680,127374,143945
2025-04-22 18:15:36.947,166177,36028,34623,127292,143922
2025-04-22 18:15:36.974,166159,35991,34580,127259,143863
2025-04-22 18:15:36.975,166106,35957,34556,127211,143841
2025-04-22 18:15:36.980,166052,35909,34509,127191,143830
2025-04-22 18:15:36.988,166020,35867,34469,127154,143760
2025-04-22 18:15:37.000,165967,35832,34435,127137,143745
2025-04-22 18:15:37.008,165930,35788,34403,127089,143706
2025-04-22 18:15:37.019,165872,35733,34349,127043,143654
2025-04-22 18:15:37.040,165811,35680,34295,126971,143600
2025-04-22 18:15:37.041,165785,35634,34245,126922,143534
2025-04-22 18:15:37.047,165748,35599,34201,126848,143446
2025-04-22 18:15:37.060,165724,35557,34157,126823,143417
2025-04-22 18:15:37.071,165724,35516,34099,126761,143375
2025-04-22 18:15:37.079,165698,35486,34066,126665,143293
2025-04-22 18:15:37.105,165716,35473,34019,126628,143232
2025-04-22 18:15:37.106,165692,35452,33975,126568,143180
2025-04-22 18:15:37.111,165668,35440,33930,126525,143122
2025-04-22 18:15:37.120,165658,35432,33897,126507,143101
2025-04-22 18:15:37.132,165660,35425,33872,126459,143055
2025-04-22 18:15:37.139,165628,35420,33841,126429,143025
2025-04-22 18:15:37.151,165622,35403,33831,126399,143018
2025-04-22 18:15:37.169,165612,35413,33805,126376,142997
2025-04-22 18:15:37.172,165606,35424,33780,126381,142979
2025-04-22 18:15:37.179,165607,35427,33778,126388,143000
2025-04-22 18:15:37.191,165608,35452,33774,126412,143036
2025-04-22 18:15:37.199,165581,35480,33795,126430,143077
2025-04-22 18:15:37.211,165581,35502,33804,126497,143110
2025-04-22 18:15:37.234,165563,35543,33829,126553,143202
2025-04-22 18:15:37.235,165574,35570,33857,126610,143253
2025-04-22 18:15:37.240,165577,35596,33884,126695,143318
2025-04-22 18:15:37.251,165576,35637,33909,126747,143396
2025-04-22 18:15:37.260,165584,35670,33942,126833,143486
2025-04-22 18:15:37.271,165614,35690,33971,126867,143546
2025-04-22 18:15:37.280,165628,35718,34007,126938,143599
2025-04-22 18:15:37.299,165656,35760,34036,126993,143661
2025-04-22 18:15:37.300,165673,35790,34048,127052,143718
2025-04-22 18:15:37.311,165708,35817,34067,127099,143780
2025-04-22 18:15:37.324,165722,35858,34121,127125,143810
2025-04-22 18:15:37.331,165747,35889,34135,127162,143868
2025-04-22 18:15:37.344,165757,35928,34163,127199,143911
2025-04-22 18:15:37.363,165786,35964,34193,127208,143933
2025-04-22 18:15:37.364,165834,36001,34228,127236,143989
2025-04-22 18:15:37.372,165846,36045,34247,127266,144019
2025-04-22 18:15:37.383,165877,36094,34284,127283,144076
2025-04-22 18:15:37.391,165898,36140,34321,127338,144125
2025-04-22 18:15:37.403,165905,36184,34349,127378,144188
2025-04-22 18:15:37.411,165951,36232,34388,127416,144243
2025-04-22 18:15:37.428,165937,36267,34428,127434,144310
2025-04-22 18:15:37.431,165993,36331,34457,127494,144366
2025-04-22 18:15:37.444,166021,36370,34502,127531,144420
2025-04-22 18:15:37.451,166044,36429,34551,127594,144489
2025-04-22 18:15:37.463,166060,36484,34578,127637,144558
2025-04-22 18:15:37.471,166083,36522,34623,127695,144631
2025-04-22 18:15:37.493,166136,36563,34652,127749,144668
2025-04-22 18:15:37.495,166158,36622,34698,127793,144722
2025-04-22 18:15:37.496,166158,36622,34698,127793,144722
2025-04-22 18:15:37.503,166202,36713,34770,127851,144840
2025-04-22 18:15:37.511,166245,36759,34795,127897,144865
2025-04-22 18:15:37.523,166291,36778,34837,127929,144911
2025-04-22 18:15:37.532,166297,36826,34862,127948,144940
2025-04-22 18:15:37.557,166354,36859,34893,127967,144981
2025-04-22 18:15:37.559,166363,36879,34922,127989,145012
2025-04-22 18:15:37.563,166424,36919,34962,128007,145028
2025-04-22 18:15:37.576,166412,36944,34978,128014,145042
2025-04-22 18:15:37.583,166427,36971,35003,128019,145083
2025-04-22 18:15:37.594,166446,37008,35024,128032,145088
2025-04-22 18:15:37.603,166439,37024,35049,128042,145095
2025-04-22 18:15:37.624,166489,37062,35072,128055,145105
2025-04-22 18:15:37.625,166457,37088,35103,128074,145130
2025-04-22 18:15:37.635,166488,37100,35117,128093,145149
2025-04-22 18:15:37.643,166499,37133,35137,128091,145184
2025-04-22 18:15:37.655,166507,37151,35154,128117,145164
2025-04-22 18:15:37.663,166510,37172,35182,128113,145198
2025-04-22 18:15:37.691,166523,37187,35198,128117,145209
2025-04-22 18:15:37.692,166534,37214,35211,128122,145227
2025-04-22 18:15:37.695,166545,37222,35224,128122,145228
2025-04-22 18:15:37.703,166499,37219,35230,128117,145214
2025-04-22 18:15:37.716,166501,37209,35227,128118,145194
2025-04-22 18:15:37.723,166464,37181,35218,128095,145186
2025-04-22 18:15:37.735,166440,37166,35217,128090,145169
2025-04-22 18:15:37.755,166430,37126,35203,128079,145143
2025-04-22 18:15:37.757,166426,37112,35194,128041,145133
2025-04-22 18:15:37.764,166412,37082,35163,128071,145120
2025-04-22 18:15:37.775,166401,37048,35168,128064,145104
2025-04-22 18:15:37.783,166385,37052,35143,128046,145104
2025-04-22 18:15:37.795,166411,37006,35131,128055,145108
2025-04-22 18:15:37.803,166411,37004,35127,128062,145103
2025-04-22 18:15:37.819,166420,36986,35103,128054,145109
2025-04-22 18:15:37.822,166427,36959,35096,128061,145100
2025-04-22 18:15:37.835,166430,36977,35082,128059,145095
2025-04-22 18:15:37.847,166441,36941,35072,128066,145106
2025-04-22 18:15:37.855,166444,36953,35071,128044,145098
2025-04-22 18:15:37.866,166438,36931,35074,128056,145094
2025-04-22 18:15:37.885,166453,36940,35073,128060,145094
2025-04-22 18:15:37.887,166456,36926,35072,128056,145091
2025-04-22 18:15:37.895,166459,36922,35067,128035,145101
2025-04-22 18:15:37.907,166437,36906,35062,128045,145090
2025-04-22 18:15:37.915,166447,36901,35053,128034,145089
2025-04-22 18:15:37.926,166453,36889,35047,128039,145084
2025-04-22 18:15:37.950,166453,36878,35047,128038,145086
2025-04-22 18:15:37.951,166454,36874,35044,128034,145081
2025-04-22 18:15:37.954,166448,36884,35041,128069,145092
2025-04-22 18:15:37.967,166442,36876,35039,128067,145110
2025-04-22 18:15:37.975,166461,36878,35027,128063,145112
2025-04-22 18:15:37.987,166448,36871,35030,128059,145108
2025-04-22 18:15:37.994,166474,36876,35029,128053,145103
2025-04-22 18:15:38.014,166468,36868,35020,128064,145123
2025-04-22 18:15:38.015,166486,36869,35041,128076,145107
2025-04-22 18:15:38.027,166462,36865,35016,128078,145114
2025-04-22 18:15:38.035,166475,36868,35037,128084,145104
2025-04-22 18:15:38.047,166469,36876,35013,128055,145119
2025-04-22 18:15:38.054,166471,36879,35032,128082,145089
2025-04-22 18:15:38.078,166472,36879,35046,128062,145106
2025-04-22 18:15:38.079,166466,36886,35033,128080,145108
2025-04-22 18:15:38.087,166466,36883,35049,128090,145106
2025-04-22 18:15:38.099,166492,36892,35029,128064,145083
2025-04-22 18:15:38.106,166488,36891,35062,128068,145095
2025-04-22 18:15:38.119,166477,36894,35042,128058,145106
2025-04-22 18:15:38.127,166499,36898,35043,128070,145102
2025-04-22 18:15:38.143,166488,36906,35044,128068,145100
2025-04-22 18:15:38.147,166508,36923,35064,128061,145110
2025-04-22 18:15:38.158,166506,36912,35051,128060,145107
2025-04-22 18:15:38.167,166514,36921,35057,128066,145097
2025-04-22 18:15:38.179,166516,36934,35059,128054,145108
2025-04-22 18:15:38.186,166532,36941,35063,128046,145081
2025-04-22 18:15:38.207,166542,36944,35074,128033,145087
2025-04-22 18:15:38.208,166551,36943,35073,128044,145093
2025-04-22 18:15:38.219,166567,36959,35078,128013,145059
2025-04-22 18:15:38.227,166572,36969,35078,127993,145064
2025-04-22 18:15:38.239,166597,36978,35081,127986,145037
2025-04-22 18:15:38.246,166601,36973,35093,127972,145027
2025-04-22 18:15:38.272,166594,36991,35079,127951,144993
2025-04-22 18:15:38.274,166593,36993,35089,127951,144995
2025-04-22 18:15:38.278,166594,36998,35068,127953,145012
2025-04-22 18:15:38.287,166638,37001,35070,127948,144988
2025-04-22 18:15:38.299,166621,37004,35059,127927,144988
2025-04-22 18:15:38.306,166606,37035,35072,127912,144989
2025-04-22 18:15:38.319,166624,37024,35068,127925,145032
2025-04-22 18:15:38.337,166607,37027,35074,127929,145007
2025-04-22 18:15:38.339,166622,37036,35078,127932,145016
2025-04-22 18:15:38.350,166632,37045,35074,127932,145018
2025-04-22 18:15:38.358,166633,37051,35084,127939,145001
2025-04-22 18:15:38.370,166626,37051,35084,127925,145007
2025-04-22 18:15:38.378,166636,37059,35088,127929,144998
2025-04-22 18:15:38.403,166618,37065,35095,127925,145019
2025-04-22 18:15:38.404,166630,37070,35095,127917,145011
2025-04-22 18:15:38.410,166632,37086,35097,127904,145014
2025-04-22 18:15:38.419,166640,37088,35099,127898,145001
2025-04-22 18:15:38.431,166660,37105,35112,127909,145009
2025-04-22 18:15:38.440,166685,37117,35120,127902,144998
2025-04-22 18:15:38.451,166698,37121,35126,127886,144979
2025-04-22 18:15:38.471,166719,37131,35133,127870,144977
2025-04-22 18:15:38.473,166742,37145,35140,127833,144943
2025-04-22 18:15:38.479,166748,37141,35145,127838,144936
2025-04-22 18:15:38.491,166772,37163,35150,127780,144893
2025-04-22 18:15:38.503,166783,37168,35155,127801,144886
2025-04-22 18:15:38.504,166783,37168,35155,127801,144886
2025-04-22 18:15:38.510,166754,37142,35159,127698,144811
2025-04-22 18:15:38.519,166695,37119,35144,127624,144717
2025-04-22 18:15:38.538,166611,37082,35109,127520,144625
2025-04-22 18:15:38.539,166516,37037,35074,127454,144537
2025-04-22 18:15:38.551,166473,36996,35022,127333,144440
2025-04-22 18:15:38.559,166404,36946,34985,127295,144336
2025-04-22 18:15:38.571,166376,36901,34948,127204,144286
2025-04-22 18:15:38.579,166325,36854,34898,127161,144226
2025-04-22 18:15:38.602,166283,36816,34863,127107,144153
2025-04-22 18:15:38.604,166285,36784,34831,127042,144117
2025-04-22 18:15:38.610,166265,36744,34804,126987,144060
2025-04-22 18:15:38.622,166226,36713,34763,126912,143972
2025-04-22 18:15:38.630,166226,36680,34724,126866,143925
2025-04-22 18:15:38.643,166228,36649,34698,126807,143867
2025-04-22 18:15:38.650,166222,36637,34672,126746,143821
2025-04-22 18:15:38.668,166213,36619,34647,126686,143761
2025-04-22 18:15:38.670,166192,36584,34613,126610,143686
2025-04-22 18:15:38.682,166192,36575,34585,126582,143648
2025-04-22 18:15:38.691,166207,36543,34569,126493,143582
2025-04-22 18:15:38.702,166193,36523,34543,126425,143504
2025-04-22 18:15:38.710,166177,36506,34519,126339,143450
2025-04-22 18:15:38.735,166163,36480,34491,126292,143347
2025-04-22 18:15:38.737,166143,36459,34461,126198,143272
2025-04-22 18:15:38.743,166132,36441,34433,126122,143196
2025-04-22 18:15:38.751,166135,36423,34424,126049,143156
2025-04-22 18:15:38.763,166108,36413,34394,125962,143086
2025-04-22 18:15:38.770,166092,36388,34380,125909,143002
2025-04-22 18:15:38.782,166080,36375,34366,125829,142959
2025-04-22 18:15:38.801,166057,36359,34322,125745,142858
2025-04-22 18:15:38.802,166048,36340,34321,125641,142798
2025-04-22 18:15:38.811,166030,36330,34293,125583,142699
2025-04-22 18:15:38.822,166044,36328,34275,125513,142641
2025-04-22 18:15:38.831,166041,36313,34253,125466,142599
2025-04-22 18:15:38.842,166025,36294,34239,125411,142566
2025-04-22 18:15:38.868,165990,36287,34212,125347,142500
2025-04-22 18:15:38.869,165995,36262,34198,125281,142452
2025-04-22 18:15:38.874,165968,36257,34154,125252,142430
2025-04-22 18:15:38.882,165951,36237,34136,125227,142397
2025-04-22 18:15:38.894,165960,36223,34113,125209,142389
2025-04-22 18:15:38.902,165946,36221,34093,125181,142378
2025-04-22 18:15:38.914,165934,36206,34089,125189,142367
2025-04-22 18:15:38.933,165902,36203,34067,125194,142355
2025-04-22 18:15:38.935,165876,36185,34050,125178,142343
2025-04-22 18:15:38.942,165866,36169,34048,125153,142346
2025-04-22 18:15:38.954,165843,36168,34037,125148,142343
2025-04-22 18:15:38.962,165808,36155,34037,125148,142345
2025-04-22 18:15:38.974,165772,36152,34035,125167,142362
2025-04-22 18:15:38.981,165772,36152,34035,125167,142362
2025-04-22 18:15:38.999,165758,36140,34026,125210,142403
2025-04-22 18:15:39.002,165724,36146,34027,125244,142416
2025-04-22 18:15:39.015,165724,36145,34030,125261,142469
2025-04-22 18:15:39.022,165721,36141,34026,125305,142507
2025-04-22 18:15:39.034,165690,36170,34053,125378,142559
2025-04-22 18:15:39.042,165697,36177,34071,125439,142607
2025-04-22 18:15:39.067,165677,36197,34103,125488,142693
2025-04-22 18:15:39.068,165700,36206,34116,125568,142765
2025-04-22 18:15:39.073,165711,36220,34147,125625,142823
2025-04-22 18:15:39.082,165718,36256,34169,125684,142870
2025-04-22 18:15:39.095,165709,36263,34206,125754,142940
2025-04-22 18:15:39.106,165711,36282,34228,125810,142984
2025-04-22 18:15:39.110,165711,36282,34228,125810,142984
2025-04-22 18:15:39.114,165728,36316,34270,125944,143136
2025-04-22 18:15:39.133,165713,36335,34291,126012,143203
2025-04-22 18:15:39.135,165683,36357,34309,126063,143289
2025-04-22 18:15:39.146,165685,36367,34321,126144,143342
2025-04-22 18:15:39.153,165691,36386,34345,126209,143391
2025-04-22 18:15:39.166,165700,36396,34351,126252,143426
2025-04-22 18:15:39.174,165720,36422,34371,126306,143479
2025-04-22 18:15:39.198,165722,36429,34402,126365,143519
2025-04-22 18:15:39.199,165746,36456,34414,126409,143582
2025-04-22 18:15:39.206,165769,36468,34439,126436,143619
2025-04-22 18:15:39.214,165768,36497,34456,126497,143641
2025-04-22 18:15:39.226,165806,36503,34475,126517,143684
2025-04-22 18:15:39.233,165804,36538,34513,126566,143705
2025-04-22 18:15:39.246,165833,36553,34527,126603,143745
2025-04-22 18:15:39.262,165853,36583,34542,126625,143777
2025-04-22 18:15:39.266,165870,36592,34563,126658,143811
2025-04-22 18:15:39.275,165867,36618,34577,126674,143823
2025-04-22 18:15:39.286,165868,36627,34593,126717,143875
2025-04-22 18:15:39.293,165865,36623,34598,126733,143871
2025-04-22 18:15:39.305,165841,36618,34617,126739,143885
2025-04-22 18:15:39.327,165841,36607,34621,126754,143897
2025-04-22 18:15:39.329,165835,36590,34622,126784,143900
2025-04-22 18:15:39.333,165837,36575,34614,126775,143904
2025-04-22 18:15:39.346,165830,36545,34606,126814,143907
2025-04-22 18:15:39.358,165829,36522,34605,126823,143899
2025-04-22 18:15:39.366,165813,36493,34593,126832,143934
2025-04-22 18:15:39.393,165816,36467,34584,126847,143915
2025-04-22 18:15:39.394,165782,36452,34562,126862,143912
2025-04-22 18:15:39.398,165774,36440,34550,126875,143943
2025-04-22 18:15:39.406,165778,36413,34534,126924,143961
2025-04-22 18:15:39.418,165746,36399,34529,126929,143982
2025-04-22 18:15:39.425,165761,36395,34521,126942,143991
2025-04-22 18:15:39.438,165745,36384,34522,126951,143993
2025-04-22 18:15:39.457,165745,36378,34508,126979,144028
2025-04-22 18:15:39.459,165723,36372,34503,127007,144021
2025-04-22 18:15:39.466,165696,36355,34507,127022,144060
2025-04-22 18:15:39.478,165698,36350,34497,127027,144078
2025-04-22 18:15:39.486,165677,36346,34500,127080,144103
2025-04-22 18:15:39.498,165687,36341,34493,127094,144131
2025-04-22 18:15:39.523,165668,36339,34491,127130,144152
2025-04-22 18:15:39.524,165668,36339,34491,127130,144152
2025-04-22 18:15:39.526,165687,36329,34499,127170,144206
2025-04-22 18:15:39.527,165678,36326,34495,127202,144214
2025-04-22 18:15:39.537,165708,36328,34512,127231,144228
