Timestamp,PPG1,PPG2,PPG3,PPG4,PPG5
2025-04-15 10:50:05.166,146656,38340,30669,166438,123667
2025-04-15 10:50:05.201,146649,38368,30685,166439,123693
2025-04-15 10:50:05.203,146536,38391,30664,166434,123727
2025-04-15 10:50:05.204,146377,38396,30595,166398,123697
2025-04-15 10:50:05.205,146173,38343,30465,166309,123669
2025-04-15 10:50:05.206,145947,38287,30299,166197,123574
2025-04-15 10:50:05.208,145754,38187,30102,166070,123476
2025-04-15 10:50:05.209,145551,38077,29885,165963,123374
2025-04-15 10:50:05.211,145381,37965,29687,165890,123286
2025-04-15 10:50:05.212,145258,37844,29488,165804,123209
2025-04-15 10:50:05.213,145153,37736,29315,165737,123144
2025-04-15 10:50:05.214,145078,37615,29160,165698,123091
2025-04-15 10:50:05.216,145029,37534,29028,165624,123064
2025-04-15 10:50:05.228,145011,37459,28930,165637,123027
2025-04-15 10:50:05.235,144990,37411,28871,165642,122997
2025-04-15 10:50:05.247,145028,37357,28825,165681,123014
2025-04-15 10:50:05.608,145036,37337,28798,165705,123038
2025-04-15 10:50:05.609,145100,37323,28794,165741,123080
2025-04-15 10:50:05.611,145146,37330,28804,165796,123097
2025-04-15 10:50:05.612,145201,37319,28825,165847,123140
2025-04-15 10:50:05.612,145268,37338,28854,165902,123189
2025-04-15 10:50:05.613,145328,37366,28873,165924,123217
2025-04-15 10:50:05.614,145403,37396,28933,165973,123223
2025-04-15 10:50:05.616,145491,37431,28986,165985,123276
2025-04-15 10:50:05.616,145597,37472,29058,166027,123318
2025-04-15 10:50:05.617,145676,37515,29111,166076,123343
2025-04-15 10:50:05.618,145756,37571,29180,166108,123377
2025-04-15 10:50:05.619,145802,37608,29248,166172,123414
2025-04-15 10:50:05.620,145865,37667,29299,166188,123444
2025-04-15 10:50:05.620,145920,37695,29361,166194,123478
2025-04-15 10:50:05.621,145944,37746,29408,166223,123518
2025-04-15 10:50:05.622,145967,37776,29448,166263,123543
2025-04-15 10:50:05.622,145971,37810,29471,166269,123548
2025-04-15 10:50:05.623,145986,37839,29475,166247,123579
2025-04-15 10:50:05.624,145952,37854,29491,166229,123564
2025-04-15 10:50:05.625,145951,37865,29481,166222,123577
2025-04-15 10:50:05.626,145942,37869,29478,166221,123587
2025-04-15 10:50:05.626,145946,37868,29466,166186,123545
2025-04-15 10:50:05.627,145937,37876,29461,166186,123541
2025-04-15 10:50:05.628,145949,37880,29447,166168,123550
2025-04-15 10:50:05.629,145956,37880,29445,166173,123560
2025-04-15 10:50:05.630,146005,37898,29457,166179,123544
2025-04-15 10:50:05.631,146037,37913,29462,166196,123578
2025-04-15 10:50:05.631,146099,37936,29488,166232,123609
2025-04-15 10:50:05.632,146130,37945,29508,166253,123650
2025-04-15 10:50:05.633,146169,37969,29528,166315,123665
2025-04-15 10:50:05.633,146236,37998,29565,166326,123704
2025-04-15 10:50:05.635,146272,38035,29601,166348,123727
2025-04-15 10:50:05.636,146332,38060,29631,166380,123766
2025-04-15 10:50:05.637,146346,38091,29663,166386,123757
2025-04-15 10:50:05.637,146413,38119,29700,166396,123787
2025-04-15 10:50:05.638,146491,38153,29747,166430,123815
2025-04-15 10:50:05.638,146523,38191,29768,166453,123820
2025-04-15 10:50:05.639,146594,38217,29811,166476,123852
2025-04-15 10:50:05.640,146622,38255,29846,166492,123856
2025-04-15 10:50:05.646,146677,38286,29891,166495,123894
2025-04-15 10:50:05.670,146742,38325,29933,166515,123932
2025-04-15 10:50:05.671,146781,38368,29985,166548,123964
2025-04-15 10:50:05.678,146874,38409,30026,166586,123982
2025-04-15 10:50:05.686,146903,38429,30069,166601,123998
2025-04-15 10:50:05.698,146963,38469,30100,166623,124017
2025-04-15 10:50:05.708,147030,38501,30141,166625,124044
2025-04-15 10:50:05.719,147076,38543,30176,166630,124062
2025-04-15 10:50:05.734,147126,38573,30213,166630,124063
2025-04-15 10:50:05.739,147189,38611,30254,166646,124089
2025-04-15 10:50:05.747,147228,38646,30293,166659,124091
2025-04-15 10:50:05.759,147281,38690,30329,166690,124117
2025-04-15 10:50:05.766,147339,38719,30349,166684,124153
2025-04-15 10:50:05.779,147390,38752,30402,166702,124175
2025-04-15 10:50:05.796,147460,38810,30449,166731,124201
2025-04-15 10:50:05.799,147506,38816,30480,166743,124226
2025-04-15 10:50:05.811,147575,38876,30524,166778,124248
2025-04-15 10:50:05.819,147623,38919,30571,166822,124300
2025-04-15 10:50:05.831,147674,38937,30611,166853,124321
2025-04-15 10:50:05.839,147750,39002,30653,166877,124363
2025-04-15 10:50:05.860,147799,39028,30701,166910,124406
2025-04-15 10:50:05.861,147847,39074,30742,166961,124432
2025-04-15 10:50:05.870,147892,39112,30777,166957,124482
2025-04-15 10:50:05.878,147959,39149,30826,166980,124495
2025-04-15 10:50:05.882,147959,39149,30826,166980,124495
2025-04-15 10:50:05.891,148065,39230,30905,167030,124539
2025-04-15 10:50:05.898,148104,39271,30925,167042,124564
2025-04-15 10:50:05.924,148185,39303,30980,167057,124613
2025-04-15 10:50:05.925,148229,39332,31015,167112,124619
2025-04-15 10:50:05.930,148291,39378,31068,167113,124654
2025-04-15 10:50:05.939,148360,39417,31119,167130,124685
2025-04-15 10:50:05.951,148424,39450,31129,167141,124715
2025-04-15 10:50:05.958,148485,39496,31211,167184,124722
2025-04-15 10:50:05.971,148545,39544,31234,167222,124761
2025-04-15 10:50:05.988,148609,39590,31283,167230,124800
2025-04-15 10:50:05.990,148674,39640,31346,167252,124828
2025-04-15 10:50:05.999,148726,39673,31371,167309,124841
2025-04-15 10:50:06.010,148746,39709,31413,167295,124883
2025-04-15 10:50:06.019,148714,39732,31413,167314,124907
2025-04-15 10:50:06.031,148630,39749,31380,167305,124915
2025-04-15 10:50:06.052,148440,39730,31311,167256,124898
2025-04-15 10:50:06.053,148228,39696,31188,167188,124848
2025-04-15 10:50:06.060,147974,39626,31019,167094,124774
2025-04-15 10:50:06.071,147740,39517,30811,166972,124673
2025-04-15 10:50:06.082,147523,39407,30606,166857,124589
2025-04-15 10:50:06.091,147334,39273,30374,166823,124521
2025-04-15 10:50:06.098,147197,39163,30177,166729,124466
2025-04-15 10:50:06.117,147044,39041,29985,166682,124399
2025-04-15 10:50:06.122,146988,38935,29820,166677,124394
2025-04-15 10:50:06.132,146924,38826,29687,166689,124368
2025-04-15 10:50:06.142,146888,38738,29592,166709,124371
2025-04-15 10:50:06.151,146879,38678,29507,166742,124402
2025-04-15 10:50:06.163,146877,38613,29446,166792,124423
2025-04-15 10:50:06.180,146899,38572,29410,166830,124441
2025-04-15 10:50:06.183,146910,38543,29392,166827,124446
2025-04-15 10:50:06.190,146948,38520,29379,166841,124454
2025-04-15 10:50:06.203,146997,38510,29396,166862,124479
2025-04-15 10:50:06.211,147048,38511,29408,166869,124476
2025-04-15 10:50:06.223,147099,38518,29449,166918,124518
2025-04-15 10:50:06.244,147185,38534,29482,166915,124531
2025-04-15 10:50:06.246,147224,38552,29537,167002,124580
2025-04-15 10:50:06.251,147311,38574,29570,167010,124595
2025-04-15 10:50:06.262,147394,38605,29644,167050,124623
2025-04-15 10:50:06.271,147471,38649,29705,167058,124655
2025-04-15 10:50:06.283,147540,38676,29764,167123,124686
2025-04-15 10:50:06.290,147597,38726,29831,167154,124726
2025-04-15 10:50:06.309,147661,38762,29896,167154,124759
2025-04-15 10:50:06.311,147699,38795,29956,167221,124798
2025-04-15 10:50:06.323,147723,38833,30004,167236,124823
2025-04-15 10:50:06.331,147752,38861,30044,167251,124828
2025-04-15 10:50:06.342,147756,38894,30083,167245,124858
2025-04-15 10:50:06.350,147737,38918,30100,167259,124881
2025-04-15 10:50:06.375,147725,38927,30101,167246,124876
2025-04-15 10:50:06.376,147727,38923,30111,167233,124877
2025-04-15 10:50:06.382,147733,38943,30098,167226,124873
2025-04-15 10:50:06.390,147713,38939,30109,167235,124865
2025-04-15 10:50:06.403,147725,38934,30102,167220,124899
2025-04-15 10:50:06.411,147736,38951,30103,167224,124895
2025-04-15 10:50:06.423,147757,38954,30104,167265,124914
2025-04-15 10:50:06.442,147760,38964,30123,167264,124940
2025-04-15 10:50:06.444,147803,38961,30123,167313,124952
2025-04-15 10:50:06.454,147836,38981,30158,167329,124992
2025-04-15 10:50:06.463,147893,38985,30180,167381,125006
2025-04-15 10:50:06.474,147924,39006,30201,167412,125044
2025-04-15 10:50:06.482,147976,39021,30228,167415,125037
2025-04-15 10:50:06.511,148002,39043,30264,167449,125078
2025-04-15 10:50:06.512,148059,39074,30300,167457,125080
2025-04-15 10:50:06.515,148103,39087,30331,167472,125072
2025-04-15 10:50:06.523,148170,39118,30364,167471,125118
2025-04-15 10:50:06.535,148227,39145,30406,167487,125121
2025-04-15 10:50:06.543,148275,39172,30447,167508,125155
2025-04-15 10:50:06.554,148335,39198,30486,167533,125186
2025-04-15 10:50:06.580,148407,39227,30529,167535,125206
2025-04-15 10:50:06.581,148452,39263,30581,167570,125222
2025-04-15 10:50:06.583,148497,39297,30635,167610,125273
2025-04-15 10:50:06.595,148559,39338,30679,167665,125301
2025-04-15 10:50:06.602,148624,39372,30733,167683,125330
2025-04-15 10:50:06.615,148660,39410,30787,167725,125387
2025-04-15 10:50:06.622,148725,39457,30836,167765,125390
2025-04-15 10:50:07.203,148785,39478,30886,167804,125441
2025-04-15 10:50:07.205,148862,39514,30921,167791,125461
2025-04-15 10:50:07.206,148906,39560,30980,167830,125468
2025-04-15 10:50:07.207,148976,39588,31022,167840,125505
2025-04-15 10:50:07.208,149006,39622,31059,167867,125525
2025-04-15 10:50:07.209,149081,39655,31103,167895,125544
2025-04-15 10:50:07.209,149125,39684,31154,167916,125564
2025-04-15 10:50:07.210,149179,39722,31195,167923,125588
2025-04-15 10:50:07.211,149236,39762,31236,167944,125602
2025-04-15 10:50:07.212,149284,39785,31272,167972,125617
2025-04-15 10:50:07.212,149335,39804,31311,168000,125642
2025-04-15 10:50:07.214,149373,39835,31349,168020,125652
2025-04-15 10:50:07.214,149442,39864,31386,168026,125698
2025-04-15 10:50:07.215,149501,39903,31432,168058,125728
2025-04-15 10:50:07.216,149541,39948,31473,168065,125740
2025-04-15 10:50:07.217,149600,39975,31523,168123,125782
2025-04-15 10:50:07.218,149683,40017,31576,168184,125847
2025-04-15 10:50:07.218,149731,40055,31621,168216,125880
2025-04-15 10:50:07.219,149786,40087,31669,168245,125908
2025-04-15 10:50:07.220,149859,40127,31714,168294,125946
2025-04-15 10:50:07.220,149911,40165,31769,168332,125987
2025-04-15 10:50:07.221,149979,40207,31825,168374,126032
2025-04-15 10:50:07.222,150050,40254,31880,168439,126073
2025-04-15 10:50:07.223,150109,40280,31925,168446,126104
2025-04-15 10:50:07.224,150182,40323,31972,168489,126134
2025-04-15 10:50:07.224,150246,40351,32032,168522,126189
2025-04-15 10:50:07.225,150246,40351,32032,168522,126189
2025-04-15 10:50:07.226,150376,40427,32126,168539,126224
2025-04-15 10:50:07.226,150432,40471,32179,168586,126236
2025-04-15 10:50:07.227,150489,40511,32230,168616,126268
2025-04-15 10:50:07.228,150546,40547,32268,168646,126321
2025-04-15 10:50:07.228,150554,40581,32307,168723,126369
2025-04-15 10:50:07.229,150491,40604,32304,168740,126413
2025-04-15 10:50:07.230,150348,40609,32270,168752,126440
2025-04-15 10:50:07.231,150148,40586,32168,168731,126436
2025-04-15 10:50:07.232,149928,40546,32028,168641,126382
2025-04-15 10:50:07.233,149690,40454,31821,168519,126280
2025-04-15 10:50:07.234,149470,40356,31622,168431,126202
2025-04-15 10:50:07.235,149262,40232,31391,168325,126092
2025-04-15 10:50:07.236,149078,40090,31164,168229,126015
2025-04-15 10:50:07.237,148976,39961,30953,168165,125940
2025-04-15 10:50:07.237,148831,39839,30777,168144,125877
2025-04-15 10:50:07.239,148760,39709,30608,168119,125859
2025-04-15 10:50:07.240,148741,39612,30499,168134,125856
2025-04-15 10:50:07.241,148697,39530,30400,168166,125874
2025-04-15 10:50:07.242,148700,39458,30346,168216,125880
2025-04-15 10:50:07.243,148696,39402,30300,168249,125927
2025-04-15 10:50:07.244,148750,39379,30273,168310,125944
2025-04-15 10:50:07.245,148787,39349,30262,168322,125971
2025-04-15 10:50:07.247,148820,39338,30268,168384,126001
2025-04-15 10:50:07.248,148875,39328,30300,168411,126007
2025-04-15 10:50:07.249,148941,39328,30323,168454,126038
2025-04-15 10:50:07.250,149004,39343,30372,168476,126057
2025-04-15 10:50:07.251,149082,39347,30412,168519,126091
2025-04-15 10:50:07.252,149155,39357,30470,168555,126131
2025-04-15 10:50:07.466,149247,39394,30522,168602,126129
2025-04-15 10:50:07.468,149334,39412,30603,168624,126170
2025-04-15 10:50:07.468,149406,39457,30668,168676,126199
2025-04-15 10:50:07.469,149502,39479,30745,168704,126248
2025-04-15 10:50:07.470,149556,39523,30813,168740,126271
2025-04-15 10:50:07.471,149598,39557,30881,168778,126317
2025-04-15 10:50:07.471,149639,39597,30945,168807,126341
2025-04-15 10:50:07.472,149674,39629,31007,168851,126390
2025-04-15 10:50:07.473,149689,39658,31064,168852,126405
2025-04-15 10:50:07.474,149712,39672,31079,168877,126439
2025-04-15 10:50:07.474,149687,39679,31096,168906,126443
2025-04-15 10:50:07.475,149694,39690,31096,168890,126438
2025-04-15 10:50:07.477,149671,39688,31102,168870,126437
2025-04-15 10:50:07.478,149653,39702,31103,168853,126443
2025-04-15 10:50:07.479,149667,39699,31096,168865,126433
2025-04-15 10:50:07.479,149676,39683,31096,168871,126457
2025-04-15 10:50:07.480,149675,39692,31103,168892,126460
2025-04-15 10:50:07.481,149703,39698,31113,168904,126486
2025-04-15 10:50:07.482,149754,39697,31117,168945,126518
2025-04-15 10:50:07.483,149782,39713,31134,168985,126535
2025-04-15 10:50:07.485,149816,39725,31161,168994,126554
2025-04-15 10:50:07.486,149826,39747,31174,169016,126558
2025-04-15 10:50:07.486,149904,39755,31196,169023,126573
2025-04-15 10:50:07.487,149944,39778,31239,169033,126601
2025-04-15 10:50:07.488,150008,39791,31279,169075,126613
2025-04-15 10:50:07.489,150054,39834,31311,169112,126655
2025-04-15 10:50:07.490,150099,39853,31354,169129,126658
2025-04-15 10:50:07.492,150173,39880,31396,169133,126670
2025-04-15 10:50:07.494,150224,39908,31445,169145,126719
2025-04-15 10:50:07.495,150275,39949,31499,169163,126719
2025-04-15 10:50:07.496,150321,39973,31542,169211,126719
2025-04-15 10:50:07.497,150401,40001,31587,169206,126766
2025-04-15 10:50:07.498,150446,40015,31624,169256,126777
2025-04-15 10:50:07.534,150516,40060,31685,169274,126818
2025-04-15 10:50:07.535,150563,40098,31740,169335,126849
2025-04-15 10:50:07.537,150626,40126,31792,169325,126877
2025-04-15 10:50:07.538,150695,40166,31846,169394,126923
2025-04-15 10:50:07.549,150755,40203,31901,169440,126965
2025-04-15 10:50:07.558,150825,40244,31975,169488,127030
2025-04-15 10:50:07.569,150893,40283,32031,169585,127071
2025-04-15 10:50:07.577,150951,40322,32086,169600,127106
2025-04-15 10:50:07.600,151008,40369,32143,169623,127140
2025-04-15 10:50:07.601,151077,40414,32203,169662,127171
2025-04-15 10:50:07.610,151115,40441,32260,169705,127203
2025-04-15 10:50:07.617,151185,40476,32304,169693,127223
2025-04-15 10:50:07.629,151234,40502,32349,169709,127238
2025-04-15 10:50:07.637,151313,40551,32388,169707,127245
2025-04-15 10:50:07.676,151355,40593,32437,169718,127247
2025-04-15 10:50:07.678,151407,40637,32487,169740,127296
2025-04-15 10:50:07.679,151470,40656,32537,169794,127296
2025-04-15 10:50:07.681,151515,40679,32577,169788,127319
2025-04-15 10:50:07.689,151572,40725,32624,169821,127372
2025-04-15 10:50:07.701,151637,40759,32679,169840,127406
2025-04-15 10:50:07.709,151714,40810,32715,169866,127435
2025-04-15 10:50:07.722,151783,40854,32765,169897,127476
2025-04-15 10:50:07.754,151823,40884,32834,169936,127486
2025-04-15 10:50:07.756,151890,40944,32886,169956,127510
2025-04-15 10:50:07.757,151974,40957,32940,169974,127551
2025-04-15 10:50:07.761,152039,40997,32990,170031,127570
2025-04-15 10:50:07.770,152088,41044,33035,170026,127581
2025-04-15 10:50:07.781,152122,41073,33070,170043,127594
2025-04-15 10:50:07.789,152155,41107,33108,170062,127606
2025-04-15 10:50:07.801,152135,41118,33110,170057,127640
2025-04-15 10:50:07.827,152082,41137,33100,170041,127616
2025-04-15 10:50:07.830,151945,41124,33051,170006,127624
2025-04-15 10:50:07.831,151784,41112,32967,169960,127599
2025-04-15 10:50:07.841,151604,41043,32842,169954,127575
2025-04-15 10:50:07.849,151428,40971,32683,169828,127504
2025-04-15 10:50:07.862,151242,40874,32509,169790,127442
2025-04-15 10:50:07.869,151088,40777,32335,169740,127371
2025-04-15 10:50:07.897,150966,40660,32161,169701,127322
2025-04-15 10:50:07.899,150866,40549,31997,169682,127288
2025-04-15 10:50:07.900,150866,40549,31997,169682,127288
2025-04-15 10:50:07.902,150752,40351,31731,169633,127215
2025-04-15 10:50:07.910,150703,40267,31642,169624,127198
2025-04-15 10:50:07.921,150697,40193,31563,169624,127183
2025-04-15 10:50:07.929,150691,40122,31506,169637,127170
2025-04-15 10:50:07.941,150705,40071,31479,169659,127146
2025-04-15 10:50:07.962,150724,40024,31435,169649,127137
2025-04-15 10:50:07.963,150752,39997,31428,169640,127140
2025-04-15 10:50:07.974,150811,39970,31413,169643,127122
2025-04-15 10:50:07.981,150864,39954,31414,169611,127093
2025-04-15 10:50:07.993,150912,39940,31421,169601,127070
2025-04-15 10:50:08.002,150977,39925,31457,169582,127061
2025-04-15 10:50:08.025,151073,39948,31495,169580,127049
2025-04-15 10:50:08.027,151158,39955,31544,169593,127065
2025-04-15 10:50:08.034,151237,39972,31584,169609,127084
2025-04-15 10:50:08.041,151329,39990,31649,169619,127082
2025-04-15 10:50:08.053,151365,40020,31712,169633,127120
2025-04-15 10:50:08.061,151410,40045,31755,169648,127122
2025-04-15 10:50:08.073,151447,40062,31789,169687,127151
2025-04-15 10:50:08.089,151471,40073,31847,169706,127171
2025-04-15 10:50:08.094,151468,40081,31877,169706,127196
2025-04-15 10:50:08.101,151474,40108,31864,169718,127193
2025-04-15 10:50:08.113,151448,40112,31880,169726,127222
2025-04-15 10:50:08.121,151415,40110,31866,169701,127189
2025-04-15 10:50:08.133,151378,40086,31855,169678,127176
2025-04-15 10:50:08.154,151368,40077,31829,169653,127142
2025-04-15 10:50:08.155,151364,40049,31798,169646,127140
2025-04-15 10:50:08.161,151345,40032,31778,169615,127133
2025-04-15 10:50:08.173,151328,40014,31763,169614,127100
2025-04-15 10:50:08.182,151341,39997,31756,169634,127106
2025-04-15 10:50:08.193,151357,39985,31743,169649,127109
2025-04-15 10:50:08.201,151363,39964,31749,169637,127114
2025-04-15 10:50:08.217,151381,39958,31739,169654,127126
2025-04-15 10:50:08.221,151410,39955,31736,169664,127142
2025-04-15 10:50:08.233,151422,39937,31752,169682,127136
2025-04-15 10:50:08.241,151464,39941,31768,169678,127140
2025-04-15 10:50:08.253,151495,39932,31773,169697,127152
2025-04-15 10:50:08.265,151538,39946,31803,169694,127167
2025-04-15 10:50:08.287,151569,39947,31830,169735,127185
2025-04-15 10:50:08.289,151628,39948,31840,169734,127187
2025-04-15 10:50:08.293,151654,39972,31871,169744,127178
2025-04-15 10:50:08.305,151676,39973,31889,169740,127200
2025-04-15 10:50:08.313,151742,39974,31907,169761,127194
2025-04-15 10:50:08.326,151763,40005,31936,169770,127195
2025-04-15 10:50:08.333,151814,40005,31951,169806,127218
2025-04-15 10:50:08.361,151849,40008,31991,169787,127221
2025-04-15 10:50:08.364,151888,40032,32021,169809,127222
2025-04-15 10:50:08.365,151919,40055,32053,169809,127236
2025-04-15 10:50:08.373,151981,40077,32067,169824,127268
2025-04-15 10:50:08.386,152014,40083,32108,169834,127275
2025-04-15 10:50:08.393,152048,40110,32142,169851,127284
2025-04-15 10:50:08.405,152098,40130,32167,169854,127297
2025-04-15 10:50:08.424,152134,40150,32208,169878,127294
2025-04-15 10:50:08.427,152211,40166,32238,169880,127322
2025-04-15 10:50:08.434,152246,40183,32263,169906,127334
2025-04-15 10:50:08.445,152276,40223,32306,169904,127369
2025-04-15 10:50:08.453,152326,40222,32350,169945,127368
2025-04-15 10:50:08.465,152363,40250,32372,169930,127388
2025-04-15 10:50:08.474,152406,40267,32395,169939,127402
2025-04-15 10:50:08.493,152446,40291,32424,169951,127387
2025-04-15 10:50:08.495,152501,40301,32465,169977,127410
2025-04-15 10:50:08.505,152548,40330,32493,169992,127434
2025-04-15 10:50:08.513,152595,40341,32529,170012,127444
2025-04-15 10:50:08.525,152638,40377,32563,170036,127451
2025-04-15 10:50:08.533,152687,40406,32598,170048,127462
2025-04-15 10:50:08.560,152701,40411,32631,170039,127496
2025-04-15 10:50:08.561,152717,40429,32641,170087,127508
2025-04-15 10:50:08.565,152688,40447,32658,170071,127508
2025-04-15 10:50:08.577,152618,40432,32641,170081,127532
2025-04-15 10:50:08.584,152429,40404,32567,170030,127490
2025-04-15 10:50:08.597,152220,40351,32444,169976,127427
2025-04-15 10:50:08.604,151968,40259,32289,169909,127351
2025-04-15 10:50:08.625,151692,40127,32098,169788,127244
2025-04-15 10:50:08.626,151448,39966,31871,169713,127154
2025-04-15 10:50:08.637,151224,39788,31652,169617,127047
2025-04-15 10:50:08.644,151028,39602,31442,169554,126975
2025-04-15 10:50:08.657,150818,39433,31243,169495,126881
2025-04-15 10:50:08.665,150665,39245,31056,169432,126820
2025-04-15 10:50:08.688,150544,39090,30896,169404,126761
2025-04-15 10:50:08.689,150459,38942,30767,169409,126729
2025-04-15 10:50:08.697,150387,38801,30677,169396,126680
2025-04-15 10:50:08.705,150357,38694,30600,169417,126703
2025-04-15 10:50:08.717,150321,38589,30546,169411,126666
2025-04-15 10:50:08.725,150326,38517,30517,169427,126644
2025-04-15 10:50:08.736,150313,38468,30498,169446,126650
2025-04-15 10:50:08.753,150359,38415,30495,169479,126643
2025-04-15 10:50:08.756,150368,38373,30500,169478,126652
2025-04-15 10:50:08.765,150403,38372,30514,169481,126647
2025-04-15 10:50:08.776,150467,38346,30547,169478,126665
2025-04-15 10:50:08.784,150518,38356,30595,169499,126654
2025-04-15 10:50:08.797,150596,38363,30641,169558,126674
2025-04-15 10:50:08.819,150675,38371,30698,169573,126697
2025-04-15 10:50:08.821,150735,38402,30748,169609,126731
2025-04-15 10:50:08.825,150827,38431,30832,169654,126779
2025-04-15 10:50:08.837,150895,38464,30881,169673,126793
2025-04-15 10:50:08.845,150929,38486,30950,169692,126823
2025-04-15 10:50:08.857,150944,38524,31012,169725,126839
2025-04-15 10:50:08.888,150966,38541,31049,169732,126866
2025-04-15 10:50:08.890,150979,38546,31073,169754,126869
2025-04-15 10:50:08.892,150964,38561,31110,169751,126887
2025-04-15 10:50:08.897,150914,38538,31108,169772,126887
2025-04-15 10:50:08.901,150914,38538,31108,169772,126887
2025-04-15 10:50:08.910,150837,38512,31098,169726,126878
2025-04-15 10:50:08.917,150820,38493,31083,169725,126870
2025-04-15 10:50:08.929,150775,38457,31069,169712,126847
2025-04-15 10:50:08.937,150763,38443,31050,169726,126835
2025-04-15 10:50:08.958,150747,38434,31045,169722,126840
2025-04-15 10:50:08.960,150739,38402,31044,169753,126838
2025-04-15 10:50:08.969,150746,38396,31048,169778,126835
2025-04-15 10:50:08.977,150752,38374,31047,169818,126869
2025-04-15 10:50:08.988,150761,38364,31057,169837,126881
2025-04-15 10:50:08.997,150796,38367,31064,169844,126877
2025-04-15 10:50:09.026,150819,38370,31096,169875,126884
2025-04-15 10:50:09.028,150860,38377,31111,169866,126908
2025-04-15 10:50:09.029,150893,38385,31154,169869,126921
2025-04-15 10:50:09.036,150936,38394,31175,169915,126910
2025-04-15 10:50:09.048,150982,38404,31211,169939,126937
2025-04-15 10:50:09.057,151017,38417,31270,169963,126945
2025-04-15 10:50:09.068,151075,38440,31276,169964,126984
2025-04-15 10:50:09.096,151115,38461,31351,169981,126994
2025-04-15 10:50:09.098,151160,38480,31375,170009,127016
2025-04-15 10:50:09.100,151217,38519,31421,170057,127035
2025-04-15 10:50:09.109,151251,38535,31473,170075,127047
2025-04-15 10:50:09.116,151297,38555,31507,170096,127070
2025-04-15 10:50:09.128,151351,38581,31558,170091,127104
2025-04-15 10:50:09.137,151405,38599,31592,170129,127111
2025-04-15 10:50:09.166,151430,38625,31630,170152,127117
2025-04-15 10:50:09.168,151494,38647,31665,170125,127125
2025-04-15 10:50:09.169,151518,38676,31698,170142,127130
2025-04-15 10:50:09.181,151567,38696,31734,170168,127131
2025-04-15 10:50:09.188,151626,38717,31782,170173,127172
2025-04-15 10:50:09.200,151654,38745,31825,170207,127184
2025-04-15 10:50:09.208,151738,38779,31864,170235,127245
2025-04-15 10:50:09.237,151765,38808,31913,170272,127271
2025-04-15 10:50:09.239,151815,38839,31956,170304,127280
2025-04-15 10:50:09.240,151872,38865,32000,170343,127292
2025-04-15 10:50:09.249,151926,38899,32036,170366,127322
2025-04-15 10:50:09.260,151978,38942,32091,170379,127328
2025-04-15 10:50:09.268,152031,38975,32136,170419,127384
2025-04-15 10:50:09.280,152080,39006,32187,170440,127410
2025-04-15 10:50:09.304,152136,39031,32222,170475,127428
2025-04-15 10:50:09.306,152167,39058,32263,170512,127425
2025-04-15 10:50:09.309,152167,39058,32263,170512,127425
2025-04-15 10:50:09.320,152146,39082,32281,170505,127455
2025-04-15 10:50:09.328,152092,39079,32290,170479,127442
2025-04-15 10:50:09.340,151965,39058,32240,170465,127434
2025-04-15 10:50:09.349,151740,39010,32160,170418,127407
2025-04-15 10:50:09.370,151485,38905,32015,170345,127316
2025-04-15 10:50:09.372,151174,38758,31830,170236,127205
2025-04-15 10:50:09.381,150865,38576,31617,170132,127088
2025-04-15 10:50:09.388,150560,38366,31386,170034,126970
2025-04-15 10:50:09.401,150280,38142,31138,169957,126848
2025-04-15 10:50:09.408,149995,37903,30919,169867,126729
2025-04-15 10:50:09.436,149767,37686,30700,169815,126621
2025-04-15 10:50:09.437,149565,37471,30506,169715,126492
2025-04-15 10:50:09.440,149404,37271,30354,169702,126414
2025-04-15 10:50:09.452,149264,37108,30210,169657,126350
2025-04-15 10:50:09.460,149197,36953,30118,169632,126297
2025-04-15 10:50:09.473,149114,36837,30050,169653,126276
2025-04-15 10:50:09.480,149097,36754,30005,169652,126283
2025-04-15 10:50:09.504,149066,36674,29982,169705,126266
2025-04-15 10:50:09.506,149085,36624,29991,169731,126265
2025-04-15 10:50:09.507,149085,36624,29991,169731,126265
2025-04-15 10:50:09.512,149119,36568,30018,169853,126327
2025-04-15 10:50:09.521,149162,36553,30047,169852,126331
2025-04-15 10:50:09.532,149227,36550,30093,169887,126333
2025-04-15 10:50:09.540,149295,36573,30138,169926,126361
2025-04-15 10:50:09.552,149372,36602,30201,169935,126364
2025-04-15 10:50:09.574,149465,36633,30261,169973,126405
2025-04-15 10:50:09.576,149544,36676,30340,170013,126453
2025-04-15 10:50:09.580,149635,36725,30418,170054,126481
2025-04-15 10:50:09.592,149692,36766,30483,170098,126540
2025-04-15 10:50:09.600,149741,36798,30568,170146,126548
2025-04-15 10:50:09.612,149792,36847,30625,170167,126603
2025-04-15 10:50:09.621,149808,36871,30666,170229,126617
2025-04-15 10:50:09.650,149831,36898,30712,170254,126644
2025-04-15 10:50:09.652,149817,36897,30738,170235,126656
2025-04-15 10:50:09.654,149793,36904,30759,170256,126649
2025-04-15 10:50:09.661,149773,36894,30767,170264,126656
2025-04-15 10:50:09.672,149742,36888,30766,170236,126623
2025-04-15 10:50:09.680,149724,36849,30744,170242,126594
2025-04-15 10:50:09.692,149685,36826,30722,170230,126573
2025-04-15 10:50:09.721,149651,36791,30711,170210,126572
2025-04-15 10:50:09.723,149624,36766,30688,170213,126535
2025-04-15 10:50:09.724,149630,36742,30692,170184,126537
2025-04-15 10:50:09.732,149622,36730,30681,170208,126507
2025-04-15 10:50:09.740,149627,36708,30677,170202,126490
2025-04-15 10:50:09.752,149636,36703,30692,170223,126498
2025-04-15 10:50:09.764,149664,36688,30700,170236,126497
2025-04-15 10:50:09.786,149692,36706,30734,170257,126525
2025-04-15 10:50:09.787,149713,36711,30754,170289,126522
2025-04-15 10:50:09.792,149780,36731,30799,170329,126573
2025-04-15 10:50:09.804,149823,36759,30852,170374,126611
2025-04-15 10:50:09.811,149877,36792,30896,170446,126653
2025-04-15 10:50:09.824,149942,36822,30950,170472,126717
2025-04-15 10:50:09.832,150007,36857,30998,170544,126759
2025-04-15 10:50:09.850,150081,36897,31062,170623,126813
2025-04-15 10:50:09.851,150133,36939,31120,170685,126862
2025-04-15 10:50:09.863,150195,36980,31185,170746,126893
2025-04-15 10:50:09.871,150269,37026,31249,170788,126934
2025-04-15 10:50:09.883,150330,37058,31304,170850,126981
2025-04-15 10:50:09.892,150394,37091,31365,170882,127001
2025-04-15 10:50:09.914,150444,37132,31418,170921,127028
2025-04-15 10:50:09.916,150444,37132,31418,170921,127028
2025-04-15 10:50:09.917,150577,37211,31534,171036,127133
2025-04-15 10:50:09.923,150619,37250,31591,171067,127160
2025-04-15 10:50:09.932,150684,37271,31629,171093,127190
2025-04-15 10:50:09.944,150731,37311,31690,171121,127203
2025-04-15 10:50:09.952,150778,37347,31737,171157,127213
2025-04-15 10:50:09.963,150826,37381,31780,171180,127257
2025-04-15 10:50:09.980,150876,37417,31823,171211,127247
2025-04-15 10:50:09.984,150938,37428,31862,171235,127285
2025-04-15 10:50:09.991,150989,37466,31915,171307,127299
2025-04-15 10:50:10.004,151039,37490,31959,171334,127325
2025-04-15 10:50:10.012,151078,37517,32010,171361,127319
2025-04-15 10:50:10.023,151145,37546,32054,171407,127384
2025-04-15 10:50:10.045,151187,37572,32111,171435,127403
2025-04-15 10:50:10.046,151236,37610,32154,171480,127434
2025-04-15 10:50:10.056,151309,37634,32208,171561,127485
2025-04-15 10:50:10.063,151347,37672,32268,171598,127525
2025-04-15 10:50:10.075,151387,37708,32308,171683,127564
2025-04-15 10:50:10.083,151391,37731,32356,171744,127596
2025-04-15 10:50:10.111,151325,37728,32367,171767,127618
2025-04-15 10:50:10.112,151211,37704,32363,171815,127635
2025-04-15 10:50:10.116,151020,37647,32291,171785,127604
2025-04-15 10:50:10.123,150775,37532,32184,171791,127563
2025-04-15 10:50:10.135,150480,37378,32016,171705,127487
2025-04-15 10:50:10.144,150169,37191,31823,171677,127369
2025-04-15 10:50:10.155,149876,36980,31615,171623,127283
2025-04-15 10:50:10.176,149598,36755,31397,171564,127163
2025-04-15 10:50:10.177,149336,36517,31198,171511,127035
2025-04-15 10:50:10.183,149108,36308,31003,171463,126949
2025-04-15 10:50:10.195,148914,36115,30860,171428,126852
2025-04-15 10:50:10.204,148780,35935,30735,171421,126788
2025-04-15 10:50:10.215,148654,35798,30635,171438,126731
2025-04-15 10:50:10.224,148576,35676,30567,171451,126702
2025-04-15 10:50:10.240,148537,35575,30509,171454,126680
2025-04-15 10:50:10.243,148518,35507,30467,171480,126649
2025-04-15 10:50:10.255,148505,35468,30469,171465,126640
2025-04-15 10:50:10.263,148553,35447,30482,171509,126647
2025-04-15 10:50:10.275,148584,35425,30500,171565,126661
2025-04-15 10:50:10.284,148632,35430,30545,171582,126662
2025-04-15 10:50:10.305,148710,35449,30567,171573,126679
2025-04-15 10:50:10.307,148806,35472,30629,171642,126692
2025-04-15 10:50:10.316,148896,35496,30677,171661,126704
2025-04-15 10:50:10.323,148998,35540,30729,171678,126721
2025-04-15 10:50:10.335,149107,35585,30795,171675,126756
2025-04-15 10:50:10.343,149206,35653,30890,171745,126772
2025-04-15 10:50:10.370,149299,35705,30956,171798,126837
2025-04-15 10:50:10.371,149381,35775,31051,171840,126896
2025-04-15 10:50:10.376,149440,35823,31128,171921,126935
2025-04-15 10:50:10.387,149474,35850,31180,171989,126998
2025-04-15 10:50:10.396,149486,35885,31215,172020,127023
2025-04-15 10:50:10.407,149487,35897,31240,172032,127036
2025-04-15 10:50:10.416,149466,35901,31247,171992,127000
2025-04-15 10:50:10.438,149434,35885,31237,171973,126944
2025-04-15 10:50:10.439,149389,35851,31209,171915,126921
2025-04-15 10:50:10.448,149344,35837,31180,171900,126890
2025-04-15 10:50:10.455,149304,35805,31150,171879,126834
2025-04-15 10:50:10.467,149282,35777,31132,171892,126845
2025-04-15 10:50:10.474,149252,35764,31127,171906,126840
2025-04-15 10:50:10.499,149254,35736,31121,171947,126860
2025-04-15 10:50:10.500,149252,35746,31113,172016,126880
2025-04-15 10:50:10.508,149296,35743,31130,172024,126911
2025-04-15 10:50:10.515,149305,35758,31148,172053,126904
2025-04-15 10:50:10.527,149326,35752,31151,172078,126918
2025-04-15 10:50:10.535,149375,35755,31181,172108,126936
2025-04-15 10:50:10.546,149410,35784,31196,172109,126926
2025-04-15 10:50:10.564,149464,35804,31224,172135,126947
2025-04-15 10:50:10.567,149522,35824,31263,172156,126979
2025-04-15 10:50:10.575,149565,35857,31276,172211,126973
2025-04-15 10:50:10.587,149613,35877,31336,172214,127001
2025-04-15 10:50:10.595,149686,35907,31372,172234,127040
2025-04-15 10:50:10.607,149746,35956,31422,172286,127042
2025-04-15 10:50:10.630,149793,35976,31462,172306,127069
2025-04-15 10:50:10.632,149880,36021,31511,172399,127119
2025-04-15 10:50:10.639,149925,36071,31563,172423,127144
2025-04-15 10:50:10.647,149997,36117,31605,172453,127181
2025-04-15 10:50:10.659,150054,36131,31645,172479,127185
2025-04-15 10:50:10.667,150110,36163,31684,172493,127202
2025-04-15 10:50:10.679,150155,36201,31720,172492,127220
2025-04-15 10:50:10.696,150210,36238,31765,172479,127219
2025-04-15 10:50:10.699,150279,36273,31798,172487,127266
2025-04-15 10:50:10.708,150338,36294,31843,172547,127249
2025-04-15 10:50:10.711,150338,36294,31843,172547,127249
2025-04-15 10:50:10.719,150432,36364,31905,172599,127286
2025-04-15 10:50:10.727,150467,36393,31927,172607,127296
2025-04-15 10:50:10.739,150525,36415,31968,172594,127318
2025-04-15 10:50:10.759,150577,36444,32003,172626,127347
2025-04-15 10:50:10.761,150631,36471,32033,172625,127344
2025-04-15 10:50:10.767,150666,36498,32067,172691,127347
2025-04-15 10:50:10.779,150736,36540,32104,172711,127388
2025-04-15 10:50:10.786,150796,36571,32156,172756,127417
2025-04-15 10:50:10.799,150851,36611,32198,172779,127457
2025-04-15 10:50:10.806,150906,36655,32249,172839,127495
2025-04-15 10:50:10.824,150951,36682,32285,172900,127524
2025-04-15 10:50:10.827,150985,36707,32300,172926,127564
2025-04-15 10:50:10.839,150999,36728,32349,172954,127598
2025-04-15 10:50:10.847,150958,36760,32342,172988,127599
2025-04-15 10:50:10.859,150849,36724,32315,172978,127608
2025-04-15 10:50:10.867,150686,36682,32249,172961,127544
2025-04-15 10:50:10.888,150459,36573,32136,172889,127491
2025-04-15 10:50:10.890,150180,36433,31977,172820,127385
2025-04-15 10:50:10.898,149899,36266,31785,172751,127254
2025-04-15 10:50:10.910,149629,36051,31571,172636,127110
2025-04-15 10:50:10.918,149323,35828,31339,172535,126969
2025-04-15 10:50:10.930,149157,35597,31075,172204,126656
2025-04-15 10:50:10.953,148921,35383,30827,171911,126392
2025-04-15 10:50:10.954,148727,35184,30630,171751,126197
2025-04-15 10:50:10.958,148549,35014,30458,171664,126035
2025-04-15 10:50:10.971,148432,34865,30314,171556,125927
2025-04-15 10:50:10.979,148332,34728,30193,171503,125796
2025-04-15 10:50:10.991,148285,34659,30092,171420,125732
2025-04-15 10:50:10.999,148237,34587,30013,171430,125692
2025-04-15 10:50:11.017,148222,34531,29965,171428,125665
2025-04-15 10:50:11.019,148236,34502,29947,171409,125619
2025-04-15 10:50:11.030,148251,34493,29926,171388,125612
2025-04-15 10:50:11.039,148292,34495,29927,171397,125595
2025-04-15 10:50:11.051,148376,34517,29935,171395,125596
2025-04-15 10:50:11.058,148453,34552,29949,171437,125607
2025-04-15 10:50:11.082,148579,34600,30014,171472,125657
2025-04-15 10:50:11.083,148703,34668,30082,171543,125706
2025-04-15 10:50:11.092,148796,34726,30143,171592,125771
2025-04-15 10:50:11.098,148889,34790,30219,171684,125829
2025-04-15 10:50:11.110,148974,34857,30277,171726,125855
2025-04-15 10:50:11.119,148993,34911,30322,171760,125910
2025-04-15 10:50:11.130,149034,34934,30350,171750,125926
2025-04-15 10:50:11.147,149042,34961,30360,171760,125915
2025-04-15 10:50:11.151,148999,34947,30367,171753,125888
2025-04-15 10:50:11.158,148968,34940,30354,171736,125866
2025-04-15 10:50:11.170,148897,34917,30301,171677,125827
2025-04-15 10:50:11.179,148853,34893,30266,171630,125782
2025-04-15 10:50:11.190,148794,34862,30222,171610,125727
2025-04-15 10:50:11.213,148742,34822,30196,171606,125684
2025-04-15 10:50:11.214,148683,34782,30156,171577,125650
2025-04-15 10:50:11.223,148662,34744,30120,171586,125636
2025-04-15 10:50:11.231,148648,34711,30089,171588,125620
2025-04-15 10:50:11.243,148625,34696,30066,171621,125639
2025-04-15 10:50:11.250,148636,34689,30068,171604,125634
2025-04-15 10:50:11.277,148623,34682,30061,171625,125622
2025-04-15 10:50:11.278,148650,34680,30058,171654,125648
2025-04-15 10:50:11.282,148683,34678,30058,171646,125617
2025-04-15 10:50:11.291,148711,34686,30068,171660,125608
2025-04-15 10:50:11.303,148730,34697,30072,171637,125598
2025-04-15 10:50:11.310,148761,34702,30074,171656,125557
2025-04-15 10:50:11.323,148788,34711,30083,171631,125554
2025-04-15 10:50:11.342,148838,34727,30099,171610,125559
2025-04-15 10:50:11.344,148879,34738,30106,171625,125530
2025-04-15 10:50:11.351,148919,34750,30117,171624,125527
2025-04-15 10:50:11.362,148936,34783,30130,171626,125524
2025-04-15 10:50:11.371,148997,34791,30172,171626,125538
2025-04-15 10:50:11.382,149045,34819,30173,171657,125536
2025-04-15 10:50:11.390,149081,34832,30198,171671,125563
2025-04-15 10:50:11.407,149119,34866,30238,171727,125568
2025-04-15 10:50:11.410,149163,34901,30249,171732,125600
2025-04-15 10:50:11.423,149211,34928,30284,171773,125615
2025-04-15 10:50:11.430,149253,34951,30298,171779,125614
2025-04-15 10:50:11.442,149296,34973,30328,171804,125625
2025-04-15 10:50:11.451,149339,34994,30360,171820,125660
2025-04-15 10:50:11.473,149383,35021,30382,171837,125666
2025-04-15 10:50:11.474,149415,35055,30425,171877,125695
2025-04-15 10:50:11.483,149469,35086,30442,171918,125713
2025-04-15 10:50:11.490,149521,35100,30452,171967,125757
2025-04-15 10:50:11.502,149566,35133,30513,172002,125794
2025-04-15 10:50:11.515,149608,35181,30536,172008,125813
2025-04-15 10:50:11.538,149657,35207,30560,172066,125838
2025-04-15 10:50:11.539,149719,35235,30587,172114,125891
2025-04-15 10:50:11.543,149759,35271,30629,172135,125898
2025-04-15 10:50:11.555,149821,35301,30652,172154,125913
2025-04-15 10:50:11.562,149849,35330,30689,172175,125947
2025-04-15 10:50:11.575,149898,35350,30707,172200,125948
2025-04-15 10:50:11.582,149926,35383,30740,172199,125954
2025-04-15 10:50:11.603,149910,35392,30735,172209,125967
2025-04-15 10:50:11.605,149834,35375,30727,172207,125917
2025-04-15 10:50:11.614,149682,35332,30680,172166,125908
2025-04-15 10:50:11.622,149439,35232,30565,172098,125811
2025-04-15 10:50:11.634,149115,35086,30388,171975,125690
2025-04-15 10:50:11.643,148741,34857,30191,171851,125554
2025-04-15 10:50:11.667,148352,34638,29951,171751,125351
2025-04-15 10:50:11.668,147957,34363,29697,171573,125181
2025-04-15 10:50:11.675,147582,34112,29456,171445,124952
2025-04-15 10:50:11.683,147242,33873,29221,171330,124806
2025-04-15 10:50:11.695,146961,33650,29010,171215,124639
2025-04-15 10:50:11.702,146728,33459,28831,171141,124534
2025-04-15 10:50:11.714,146519,33294,28692,171112,124413
2025-04-15 10:50:11.732,146519,33294,28692,171112,124413
2025-04-15 10:50:11.734,146316,33078,28499,171030,124274
2025-04-15 10:50:11.735,146233,33020,28454,171045,124233
2025-04-15 10:50:11.742,146223,32972,28429,171078,124219
2025-04-15 10:50:11.754,146220,32948,28414,171084,124217
2025-04-15 10:50:11.763,146243,32959,28421,171114,124216
2025-04-15 10:50:11.775,146285,32959,28438,171141,124245
2025-04-15 10:50:11.796,146365,32987,28470,171199,124266
2025-04-15 10:50:11.798,146413,33013,28517,171230,124308
2025-04-15 10:50:11.803,146506,33062,28566,171283,124325
2025-04-15 10:50:11.814,146606,33104,28612,171356,124377
2025-04-15 10:50:11.822,146725,33155,28685,171365,124406
2025-04-15 10:50:11.834,146838,33234,28764,171421,124440
2025-04-15 10:50:11.845,146946,33292,28832,171454,124513
2025-04-15 10:50:11.863,147069,33369,28912,171534,124543
2025-04-15 10:50:11.866,147130,33444,28976,171588,124596
2025-04-15 10:50:11.875,147246,33496,29045,171642,124639
2025-04-15 10:50:11.886,147246,33539,29103,171687,124705
2025-04-15 10:50:11.894,147307,33578,29138,171726,124730
2025-04-15 10:50:11.906,147314,33603,29159,171770,124712
2025-04-15 10:50:11.927,147272,33596,29189,171734,124747
2025-04-15 10:50:11.928,147278,33602,29185,171753,124729
2025-04-15 10:50:11.934,147211,33570,29166,171722,124701
2025-04-15 10:50:11.946,147162,33558,29156,171683,124639
2025-04-15 10:50:11.955,147125,33524,29122,171638,124606
2025-04-15 10:50:11.967,147102,33498,29090,171618,124562
2025-04-15 10:50:11.974,147061,33471,29070,171586,124542
2025-04-15 10:50:11.993,147029,33474,29053,171572,124503
2025-04-15 10:50:11.994,147032,33449,29051,171583,124505
2025-04-15 10:50:12.006,147041,33465,29051,171603,124502
2025-04-15 10:50:12.014,147074,33458,29053,171643,124508
2025-04-15 10:50:12.026,147104,33472,29068,171633,124506
2025-04-15 10:50:12.034,147136,33512,29079,171651,124503
2025-04-15 10:50:12.057,147171,33493,29114,171653,124531
2025-04-15 10:50:12.058,147235,33578,29138,171670,124536
2025-04-15 10:50:12.066,147306,33583,29160,171702,124546
2025-04-15 10:50:12.074,147373,33603,29212,171729,124555
2025-04-15 10:50:12.085,147435,33669,29247,171744,124601
2025-04-15 10:50:12.094,147495,33671,29281,171785,124610
2025-04-15 10:50:12.105,147573,33748,29340,171807,124652
2025-04-15 10:50:12.122,147648,33773,29378,171844,124679
2025-04-15 10:50:12.126,147723,33820,29412,171860,124706
2025-04-15 10:50:12.134,147769,33868,29463,171881,124742
2025-04-15 10:50:12.145,147845,33910,29504,171924,124754
2025-04-15 10:50:12.158,147928,33952,29543,171963,124784
2025-04-15 10:50:12.165,147975,34004,29606,172001,124820
2025-04-15 10:50:12.187,148072,34044,29644,172004,124844
2025-04-15 10:50:12.188,148112,34083,29701,172081,124889
2025-04-15 10:50:12.197,148181,34113,29722,172104,124909
2025-04-15 10:50:12.206,148258,34176,29769,172135,124951
2025-04-15 10:50:12.218,148305,34212,29842,172139,124983
2025-04-15 10:50:12.226,148366,34242,29835,172201,124997
2025-04-15 10:50:12.252,148416,34280,29897,172216,125030
2025-04-15 10:50:12.253,148471,34311,29938,172243,125039
2025-04-15 10:50:12.257,148506,34348,29934,172263,125044
2025-04-15 10:50:12.266,148571,34387,30007,172270,125077
2025-04-15 10:50:12.278,148626,34420,30014,172281,125089
2025-04-15 10:50:12.285,148669,34451,30058,172287,125107
2025-04-15 10:50:12.298,148736,34486,30086,172297,125119
2025-04-15 10:50:12.318,148784,34532,30117,172353,125124
2025-04-15 10:50:12.319,148844,34562,30164,172365,125183
2025-04-15 10:50:12.325,148908,34608,30213,172409,125229
2025-04-15 10:50:12.338,148969,34661,30245,172454,125267
2025-04-15 10:50:12.345,149033,34705,30284,172498,125320
2025-04-15 10:50:12.358,149102,34738,30337,172556,125350
2025-04-15 10:50:12.365,149145,34784,30368,172554,125359
2025-04-15 10:50:12.383,149172,34795,30405,172577,125364
2025-04-15 10:50:12.385,149159,34821,30412,172595,125374
2025-04-15 10:50:12.398,149049,34791,30388,172557,125352
2025-04-15 10:50:12.405,148879,34729,30320,172528,125307
2025-04-15 10:50:12.418,148578,34593,30189,172440,125195
2025-04-15 10:50:12.425,148191,34409,30004,172295,125061
2025-04-15 10:50:12.448,147817,34191,29788,172177,124885
2025-04-15 10:50:12.449,147387,33930,29553,172045,124716
2025-04-15 10:50:12.458,147000,33672,29312,171918,124526
2025-04-15 10:50:12.469,146628,33436,29063,171802,124348
2025-04-15 10:50:12.477,146284,33198,28851,171670,124185
2025-04-15 10:50:12.489,146014,32997,28654,171587,124029
2025-04-15 10:50:12.513,145799,32821,28496,171507,123913
2025-04-15 10:50:12.514,145601,32683,28371,171451,123812
2025-04-15 10:50:12.517,145463,32572,28288,171443,123729
2025-04-15 10:50:12.530,145390,32506,28226,171403,123683
2025-04-15 10:50:12.537,145361,32451,28192,171448,123678
2025-04-15 10:50:12.550,145359,32425,28170,171469,123645
2025-04-15 10:50:12.558,145362,32410,28173,171489,123670
2025-04-15 10:50:12.579,145429,32429,28193,171534,123699
2025-04-15 10:50:12.580,145480,32455,28224,171528,123710
2025-04-15 10:50:12.590,145559,32467,28258,171623,123714
2025-04-15 10:50:12.597,145614,32509,28289,171601,123746
2025-04-15 10:50:12.610,145697,32541,28334,171629,123744
2025-04-15 10:50:12.617,145810,32595,28388,171659,123761
2025-04-15 10:50:12.644,145922,32642,28441,171645,123815
2025-04-15 10:50:12.645,146037,32709,28507,171693,123848
2025-04-15 10:50:12.649,146157,32770,28581,171735,123912
2025-04-15 10:50:12.658,146277,32832,28633,171778,123958
2025-04-15 10:50:12.669,146358,32906,28695,171838,123979
2025-04-15 10:50:12.677,146457,32966,28768,171910,124020
2025-04-15 10:50:12.690,146500,33015,28830,171909,124055
2025-04-15 10:50:12.708,146541,33017,28848,171958,124101
2025-04-15 10:50:12.709,146540,33053,28873,171951,124094
2025-04-15 10:50:12.722,146537,33058,28885,171968,124118
2025-04-15 10:50:12.723,146537,33058,28885,171968,124118
2025-04-15 10:50:12.730,146495,33052,28887,171954,124070
2025-04-15 10:50:12.737,146453,33017,28866,171932,124051
2025-04-15 10:50:12.749,146430,33006,28851,171923,124003
2025-04-15 10:50:12.772,146396,32997,28834,171869,124028
2025-04-15 10:50:12.774,146401,32965,28833,171890,123996
2025-04-15 10:50:12.781,146368,32964,28812,171918,123981
2025-04-15 10:50:12.790,146377,32954,28829,171918,123997
2025-04-15 10:50:12.802,146434,32959,28840,171955,123969
2025-04-15 10:50:12.809,146471,32977,28853,171988,124048
2025-04-15 10:50:12.822,146506,32991,28886,172017,124044
2025-04-15 10:50:12.841,146563,33017,28913,172015,124064
2025-04-15 10:50:12.843,146601,33049,28947,172048,124092
2025-04-15 10:50:12.850,146679,33071,28986,172065,124110
2025-04-15 10:50:12.861,146753,33124,29025,172086,124121
2025-04-15 10:50:12.869,146821,33166,29062,172133,124158
2025-04-15 10:50:12.882,146906,33193,29115,172155,124188
2025-04-15 10:50:12.889,146975,33236,29158,172174,124210
2025-04-15 10:50:12.906,147068,33282,29200,172235,124246
2025-04-15 10:50:12.910,147139,33332,29255,172269,124286
2025-04-15 10:50:12.921,147240,33385,29322,172310,124326
2025-04-15 10:50:12.929,147324,33447,29383,172347,124362
2025-04-15 10:50:12.941,147401,33481,29421,172371,124419
2025-04-15 10:50:12.949,147480,33542,29489,172441,124449
2025-04-15 10:50:12.971,147581,33595,29546,172472,124507
2025-04-15 10:50:12.972,147663,33643,29613,172517,124544
2025-04-15 10:50:12.981,147745,33690,29656,172551,124598
2025-04-15 10:50:12.989,147803,33744,29698,172613,124626
2025-04-15 10:50:13.001,147893,33794,29764,172632,124654
2025-04-15 10:50:13.009,147966,33818,29802,172658,124686
2025-04-15 10:50:13.036,148040,33874,29839,172694,124700
2025-04-15 10:50:13.037,148062,33903,29886,172696,124724
2025-04-15 10:50:13.041,148161,33940,29933,172717,124729
2025-04-15 10:50:13.050,148216,33979,29971,172750,124761
2025-04-15 10:50:13.060,148285,34013,29996,172749,124802
2025-04-15 10:50:13.073,148350,34054,30030,172776,124818
2025-04-15 10:50:13.080,148412,34092,30077,172790,124836
2025-04-15 10:50:13.102,148445,34106,30118,172794,124852
2025-04-15 10:50:13.103,148513,34151,30153,172803,124865
2025-04-15 10:50:13.113,148591,34189,30191,172851,124879
2025-04-15 10:50:13.121,148654,34215,30225,172883,124934
2025-04-15 10:50:13.133,148698,34258,30264,172922,124939
2025-04-15 10:50:13.141,148780,34298,30311,172972,124991
2025-04-15 10:50:13.167,148834,34340,30349,172977,125011
2025-04-15 10:50:13.169,148899,34367,30394,173035,125050
2025-04-15 10:50:13.173,148948,34413,30432,173060,125094
2025-04-15 10:50:13.181,149013,34444,30472,173089,125125
2025-04-15 10:50:13.192,149101,34483,30523,173111,125153
2025-04-15 10:50:13.200,149165,34542,30567,173155,125192
2025-04-15 10:50:13.213,149223,34571,30611,173207,125246
2025-04-15 10:50:13.232,149282,34605,30643,173247,125268
2025-04-15 10:50:13.234,149338,34653,30695,173245,125273
2025-04-15 10:50:13.242,149433,34686,30712,173255,125335
2025-04-15 10:50:13.252,149491,34723,30779,173273,125359
2025-04-15 10:50:13.260,149548,34760,30809,173312,125351
2025-04-15 10:50:13.273,149632,34794,30851,173371,125399
2025-04-15 10:50:13.280,149706,34862,30900,173362,125431
2025-04-15 10:50:13.298,149768,34901,30941,173395,125457
2025-04-15 10:50:13.300,149854,34949,30996,173421,125511
2025-04-15 10:50:13.313,149946,35005,31058,173473,125556
2025-04-15 10:50:13.324,150017,35061,31117,173513,125596
2025-04-15 10:50:13.333,150109,35120,31172,173579,125678
2025-04-15 10:50:13.341,150186,35173,31244,173611,125717
2025-04-15 10:50:13.363,150260,35219,31290,173649,125758
2025-04-15 10:50:13.365,150308,35270,31337,173708,125806
2025-04-15 10:50:13.373,150281,35284,31356,173737,125813
2025-04-15 10:50:13.384,150141,35247,31327,173698,125797
2025-04-15 10:50:13.393,149902,35153,31231,173627,125712
2025-04-15 10:50:13.404,149546,35003,31077,173499,125600
2025-04-15 10:50:13.412,149145,34794,30848,173350,125414
2025-04-15 10:50:13.430,148713,34513,30599,173171,125202
2025-04-15 10:50:13.432,148277,34237,30321,173046,125005
2025-04-15 10:50:13.445,147879,33967,30051,172861,124798
2025-04-15 10:50:13.453,147489,33704,29804,172763,124634
2025-04-15 10:50:13.465,147197,33486,29581,172649,124483
2025-04-15 10:50:13.472,146941,33287,29400,172581,124350
2025-04-15 10:50:13.496,146737,33133,29238,172528,124276
2025-04-15 10:50:13.497,146586,33006,29130,172544,124215
2025-04-15 10:50:13.505,146501,32927,29048,172535,124178
2025-04-15 10:50:13.513,146451,32860,29001,172536,124151
2025-04-15 10:50:13.525,146444,32827,28971,172579,124161
2025-04-15 10:50:13.532,146458,32809,28965,172630,124164
2025-04-15 10:50:13.561,146520,32822,28987,172660,124188
2025-04-15 10:50:13.562,146562,32841,29025,172666,124193
2025-04-15 10:50:13.565,146663,32875,29042,172706,124223
2025-04-15 10:50:13.573,146736,32896,29101,172723,124255
2025-04-15 10:50:13.585,146855,32954,29138,172760,124284
2025-04-15 10:50:13.593,146980,33010,29204,172806,124331
2025-04-15 10:50:13.604,147097,33082,29274,172832,124377
2025-04-15 10:50:13.626,147256,33151,29349,172915,124441
2025-04-15 10:50:13.627,147393,33214,29444,172940,124508
2025-04-15 10:50:13.632,147514,33309,29514,173015,124588
2025-04-15 10:50:13.644,147638,33374,29615,173089,124627
2025-04-15 10:50:13.653,147732,33453,29695,173134,124700
2025-04-15 10:50:13.664,147801,33505,29751,173177,124758
2025-04-15 10:50:13.691,147857,33556,29809,173232,124780
2025-04-15 10:50:13.692,147855,33571,29853,173245,124804
2025-04-15 10:50:13.696,147866,33586,29860,173222,124808
2025-04-15 10:50:13.704,147850,33582,29867,173240,124800
2025-04-15 10:50:13.716,147789,33553,29854,173194,124763
2025-04-15 10:50:13.724,147772,33539,29840,173166,124734
2025-04-15 10:50:13.728,147772,33539,29840,173166,124734
2025-04-15 10:50:13.737,147683,33469,29785,173134,124674
2025-04-15 10:50:13.757,147637,33455,29764,173120,124669
2025-04-15 10:50:13.758,147616,33431,29760,173133,124634
2025-04-15 10:50:13.765,147620,33414,29753,173146,124641
2025-04-15 10:50:13.776,147622,33417,29766,173179,124659
2025-04-15 10:50:13.785,147668,33435,29778,173190,124678
2025-04-15 10:50:13.797,147696,33447,29810,173235,124690
2025-04-15 10:50:13.805,147763,33449,29841,173243,124713
2025-04-15 10:50:13.823,147837,33490,29878,173287,124745
2025-04-15 10:50:13.825,147872,33509,29909,173313,124783
2025-04-15 10:50:13.837,147928,33540,29950,173351,124794
2025-04-15 10:50:13.845,148015,33572,29978,173375,124815
2025-04-15 10:50:13.856,148084,33609,30037,173381,124860
2025-04-15 10:50:13.865,148143,33658,30077,173425,124873
2025-04-15 10:50:13.887,148207,33687,30127,173421,124878
2025-04-15 10:50:13.889,148306,33720,30170,173439,124918
2025-04-15 10:50:13.896,148366,33762,30210,173467,124937
2025-04-15 10:50:13.905,148448,33807,30257,173483,124974
2025-04-15 10:50:13.917,148518,33841,30300,173496,124986
2025-04-15 10:50:13.928,148581,33881,30351,173525,125030
2025-04-15 10:50:13.953,148667,33921,30399,173579,125040
2025-04-15 10:50:13.954,148728,33972,30446,173600,125093
2025-04-15 10:50:13.957,148811,34017,30492,173603,125105
2025-04-15 10:50:13.965,148881,34059,30546,173653,125153
2025-04-15 10:50:13.977,148966,34111,30586,173687,125186
2025-04-15 10:50:13.988,149023,34145,30651,173716,125217
2025-04-15 10:50:13.996,149083,34181,30689,173743,125257
2025-04-15 10:50:14.019,149155,34226,30740,173774,125294
2025-04-15 10:50:14.020,149206,34257,30779,173803,125322
2025-04-15 10:50:14.029,149273,34331,30831,173824,125352
2025-04-15 10:50:14.037,149331,34339,30854,173886,125372
2025-04-15 10:50:14.048,149379,34373,30893,173859,125404
2025-04-15 10:50:14.057,149441,34386,30936,173887,125403
2025-04-15 10:50:14.085,149492,34414,30969,173890,125415
2025-04-15 10:50:14.087,149531,34442,30980,173877,125416
2025-04-15 10:50:14.088,149567,34447,31004,173883,125417
2025-04-15 10:50:14.096,149610,34486,31035,173919,125434
2025-04-15 10:50:14.108,149667,34508,31062,173930,125443
2025-04-15 10:50:14.117,149708,34533,31076,173927,125459
2025-04-15 10:50:14.128,149745,34567,31105,173938,125462
2025-04-15 10:50:14.157,149796,34583,31130,173951,125459
2025-04-15 10:50:14.158,149841,34606,31153,173936,125492
2025-04-15 10:50:14.159,149882,34645,31174,173953,125494
2025-04-15 10:50:14.169,149938,34649,31195,173955,125492
2025-04-15 10:50:14.176,149979,34659,31223,173949,125512
2025-04-15 10:50:14.188,150022,34684,31215,173961,125489
2025-04-15 10:50:14.196,150083,34704,31240,173937,125479
2025-04-15 10:50:14.229,150121,34713,31248,173918,125477
2025-04-15 10:50:14.230,150178,34740,31258,173916,125477
2025-04-15 10:50:14.231,150212,34764,31290,173898,125466
2025-04-15 10:50:14.237,150236,34781,31298,173912,125476
2025-04-15 10:50:14.248,150289,34803,31320,173925,125491
2025-04-15 10:50:14.256,150352,34831,31364,173939,125509
2025-04-15 10:50:14.269,150428,34880,31366,173958,125562
2025-04-15 10:50:14.295,150485,34904,31421,174002,125605
2025-04-15 10:50:14.296,150543,34956,31474,174053,125639
2025-04-15 10:50:14.300,150605,34999,31512,174066,125680
2025-04-15 10:50:14.308,150676,35023,31547,174099,125707
2025-04-15 10:50:14.320,150739,35080,31596,174144,125762
2025-04-15 10:50:14.329,150802,35111,31633,174200,125771
2025-04-15 10:50:14.340,150797,35136,31646,174228,125805
2025-04-15 10:50:14.361,150733,35126,31658,174215,125803
2025-04-15 10:50:14.362,150601,35081,31604,174183,125744
2025-04-15 10:50:14.368,150351,34976,31500,174092,125675
2025-04-15 10:50:14.380,150013,34809,31334,173954,125536
2025-04-15 10:50:14.387,149654,34602,31117,173813,125368
2025-04-15 10:50:14.400,149257,34369,30888,173662,125186
2025-04-15 10:50:14.408,148867,34114,30642,173540,124992
2025-04-15 10:50:14.425,148529,33873,30413,173397,124831
2025-04-15 10:50:14.428,148212,33642,30184,173290,124698
2025-04-15 10:50:14.439,147967,33465,30002,173189,124570
2025-04-15 10:50:14.448,147769,33303,29828,173169,124459
2025-04-15 10:50:14.460,147626,33181,29706,173121,124391
2025-04-15 10:50:14.468,147505,33090,29615,173095,124333
2025-04-15 10:50:14.491,147432,33024,29543,173075,124288
2025-04-15 10:50:14.492,147427,32996,29492,173121,124288
2025-04-15 10:50:14.501,147427,32953,29481,173117,124286
2025-04-15 10:50:14.508,147464,32948,29492,173136,124293
2025-04-15 10:50:14.520,147528,32975,29508,173169,124321
2025-04-15 10:50:14.531,147598,32989,29524,173228,124344
2025-04-15 10:50:14.540,147659,33012,29557,173234,124366
2025-04-15 10:50:14.557,147764,33064,29596,173234,124364
2025-04-15 10:50:14.560,147876,33132,29646,173294,124404
2025-04-15 10:50:14.572,148024,33186,29708,173300,124435
2025-04-15 10:50:14.579,148174,33265,29774,173340,124504
2025-04-15 10:50:14.592,148313,33338,29862,173387,124519
2025-04-15 10:50:14.600,148434,33424,29946,173413,124599
2025-04-15 10:50:14.623,148544,33490,30020,173475,124656
2025-04-15 10:50:14.624,148650,33559,30086,173501,124709
2025-04-15 10:50:14.632,148719,33618,30151,173552,124739
2025-04-15 10:50:14.639,148758,33654,30211,173587,124769
2025-04-15 10:50:14.652,148785,33696,30232,173602,124788
2025-04-15 10:50:14.659,148773,33700,30256,173576,124819
2025-04-15 10:50:14.672,148753,33707,30266,173607,124815
2025-04-15 10:50:14.689,148712,33701,30265,173604,124807
2025-04-15 10:50:14.692,148678,33678,30272,173599,124777
2025-04-15 10:50:14.700,148632,33655,30253,173565,124775
2025-04-15 10:50:14.711,148588,33642,30232,173570,124786
2025-04-15 10:50:14.720,148568,33626,30232,173558,124775
2025-04-15 10:50:14.732,148556,33610,30224,173613,124765
2025-04-15 10:50:14.735,148556,33610,30224,173613,124765
2025-04-15 10:50:14.753,148564,33603,30223,173615,124771
2025-04-15 10:50:14.754,148595,33609,30229,173647,124797
2025-04-15 10:50:14.760,148620,33621,30253,173673,124771
2025-04-15 10:50:14.772,148674,33645,30273,173665,124792
2025-04-15 10:50:14.781,148704,33665,30296,173676,124797
2025-04-15 10:50:14.791,148759,33685,30337,173693,124803
2025-04-15 10:50:14.801,148836,33718,30379,173689,124849
2025-04-15 10:50:14.819,148878,33751,30405,173724,124822
2025-04-15 10:50:14.820,148964,33798,30455,173745,124889
2025-04-15 10:50:14.832,149031,33837,30499,173770,124900
2025-04-15 10:50:14.839,149103,33868,30539,173794,124940
2025-04-15 10:50:14.851,149178,33901,30593,173827,124958
2025-04-15 10:50:14.860,149233,33960,30658,173894,124995
2025-04-15 10:50:14.890,149313,34013,30697,173889,125039
2025-04-15 10:50:14.892,149397,34056,30766,173953,125089
2025-04-15 10:50:14.893,149465,34110,30819,173992,125142
2025-04-15 10:50:14.903,149552,34155,30861,174066,125187
2025-04-15 10:50:14.911,149623,34209,30939,174073,125229
2025-04-15 10:50:14.924,149704,34259,30988,174114,125267
2025-04-15 10:50:14.932,149757,34309,31034,174155,125318
2025-04-15 10:50:14.955,149852,34360,31085,174157,125325
2025-04-15 10:50:14.956,149925,34407,31123,174145,125334
2025-04-15 10:50:14.964,149982,34441,31173,174148,125348
2025-04-15 10:50:14.972,150040,34475,31210,174148,125342
2025-04-15 10:50:14.984,150091,34500,31237,174128,125361
2025-04-15 10:50:14.991,150159,34543,31276,174160,125360
2025-04-15 10:50:15.004,150205,34579,31308,174134,125369
2025-04-15 10:50:15.021,150259,34610,31347,174133,125379
2025-04-15 10:50:15.023,150304,34630,31363,174137,125376
2025-04-15 10:50:15.032,150357,34653,31404,174143,125374
2025-04-15 10:50:15.043,150387,34692,31423,174180,125403
2025-04-15 10:50:15.051,150451,34705,31468,174175,125404
2025-04-15 10:50:15.064,150473,34736,31488,174215,125447
2025-04-15 10:50:15.088,150573,34788,31540,174239,125491
2025-04-15 10:50:15.090,150580,34816,31569,174296,125505
2025-04-15 10:50:15.092,150670,34854,31610,174296,125577
2025-04-15 10:50:15.103,150714,34879,31647,174365,125574
2025-04-15 10:50:15.112,150730,34920,31669,174368,125602
2025-04-15 10:50:15.124,150830,34944,31709,174381,125614
2025-04-15 10:50:15.135,150856,34986,31756,174400,125628
2025-04-15 10:50:15.155,150916,35012,31786,174438,125670
2025-04-15 10:50:15.157,150968,35047,31822,174471,125682
2025-04-15 10:50:15.164,151028,35102,31854,174482,125721
2025-04-15 10:50:15.172,151103,35110,31918,174527,125763
2025-04-15 10:50:15.184,151173,35157,31949,174556,125775
2025-04-15 10:50:15.195,151225,35191,32003,174574,125809
2025-04-15 10:50:15.202,151304,35253,32048,174590,125833
2025-04-15 10:50:15.222,151363,35286,32095,174639,125855
2025-04-15 10:50:15.224,151404,35325,32136,174647,125881
2025-04-15 10:50:15.236,151449,35380,32169,174647,125901
2025-04-15 10:50:15.243,151406,35342,32189,174682,125941
2025-04-15 10:50:15.255,151294,35371,32159,174685,125944
2025-04-15 10:50:15.264,151061,35261,32096,174623,125883
2025-04-15 10:50:15.290,150732,35119,31955,174555,125774
2025-04-15 10:50:15.292,150305,34925,31758,174432,125622
2025-04-15 10:50:15.296,149873,34635,31504,174283,125451
2025-04-15 10:50:15.303,149425,34365,31230,174106,125207
2025-04-15 10:50:15.315,149011,34080,30946,173920,124978
2025-04-15 10:50:15.323,148590,33800,30685,173752,124768
2025-04-15 10:50:15.335,148246,33543,30427,173607,124557
2025-04-15 10:50:15.355,147935,33326,30227,173504,124425
2025-04-15 10:50:15.357,147696,33145,30043,173455,124248
2025-04-15 10:50:15.364,147513,33012,29908,173391,124200
2025-04-15 10:50:15.375,147370,32910,29803,173406,124159
2025-04-15 10:50:15.384,147294,32838,29769,173449,124144
2025-04-15 10:50:15.395,147288,32802,29720,173487,124157
2025-04-15 10:50:15.403,147290,32766,29685,173507,124180
2025-04-15 10:50:15.422,147317,32774,29721,173541,124187
2025-04-15 10:50:15.424,147363,32768,29668,173554,124183
2025-04-15 10:50:15.436,147438,32792,29737,173567,124194
2025-04-15 10:50:15.443,147472,32826,29756,173575,124217
2025-04-15 10:50:15.455,147555,32860,29780,173616,124223
2025-04-15 10:50:15.463,147646,32918,29870,173662,124268
2025-04-15 10:50:15.488,147754,32963,29903,173731,124323
2025-04-15 10:50:15.490,147882,33026,29981,173767,124398
2025-04-15 10:50:15.496,148009,33100,30056,173831,124471
2025-04-15 10:50:15.507,148133,33173,30121,173899,124518
2025-04-15 10:50:15.515,148264,33261,30213,173955,124572
2025-04-15 10:50:15.527,148378,33319,30288,173984,124622
2025-04-15 10:50:15.536,148460,33373,30350,173983,124648
2025-04-15 10:50:15.553,148526,33430,30410,174037,124684
2025-04-15 10:50:15.555,148571,33457,30457,174058,124677
2025-04-15 10:50:15.567,148569,33472,30476,174062,124686
2025-04-15 10:50:15.574,148567,33486,30492,174067,124703
2025-04-15 10:50:15.587,148515,33469,30485,174013,124677
2025-04-15 10:50:15.595,148479,33443,30476,174013,124623
2025-04-15 10:50:15.618,148454,33422,30458,173963,124577
2025-04-15 10:50:15.620,148406,33397,30435,173904,124552
2025-04-15 10:50:15.627,148370,33359,30412,173896,124491
2025-04-15 10:50:15.636,148317,33334,30378,173855,124466
2025-04-15 10:50:15.647,148313,33314,30367,173848,124430
2025-04-15 10:50:15.656,148310,33302,30369,173835,124435
2025-04-15 10:50:15.667,148319,33304,30377,173896,124447
2025-04-15 10:50:15.683,148337,33308,30372,173930,124452
2025-04-15 10:50:15.687,148386,33331,30394,173947,124493
2025-04-15 10:50:15.696,148435,33347,30422,174001,124529
2025-04-15 10:50:15.707,148480,33388,30461,174048,124594
2025-04-15 10:50:15.715,148556,33416,30513,174094,124628
2025-04-15 10:50:15.727,148634,33453,30555,174131,124630
2025-04-15 10:50:15.748,148675,33483,30599,174142,124659
2025-04-15 10:50:15.750,148675,33483,30599,174142,124659
2025-04-15 10:50:15.751,148836,33564,30683,174163,124702
2025-04-15 10:50:15.755,148910,33612,30725,174207,124715
2025-04-15 10:50:15.767,149006,33648,30784,174207,124759
2025-04-15 10:50:15.779,149063,33706,30835,174267,124759
2025-04-15 10:50:15.786,149144,33734,30883,174289,124824
2025-04-15 10:50:15.815,149217,33774,30937,174304,124857
2025-04-15 10:50:15.816,149315,33824,30990,174389,124897
2025-04-15 10:50:15.819,149368,33867,31051,174387,124939
2025-04-15 10:50:15.827,149444,33915,31111,174446,124976
2025-04-15 10:50:15.839,149519,33976,31158,174456,124999
2025-04-15 10:50:15.847,149607,34015,31210,174508,125041
2025-04-15 10:50:15.859,149676,34071,31270,174534,125064
2025-04-15 10:50:15.881,149739,34109,31314,174531,125085
2025-04-15 10:50:15.883,149810,34140,31357,174544,125112
2025-04-15 10:50:15.887,149889,34180,31401,174567,125139
2025-04-15 10:50:15.899,149935,34220,31435,174583,125149
2025-04-15 10:50:15.907,149992,34263,31496,174603,125178
2025-04-15 10:50:15.919,150081,34290,31538,174659,125219
2025-04-15 10:50:15.927,150143,34333,31580,174705,125221
2025-04-15 10:50:15.945,150173,34370,31633,174733,125297
2025-04-15 10:50:15.947,150239,34416,31672,174779,125296
2025-04-15 10:50:15.958,150291,34440,31712,174768,125322
2025-04-15 10:50:15.966,150334,34470,31744,174764,125337
2025-04-15 10:50:15.979,150403,34503,31793,174760,125311
2025-04-15 10:50:15.987,150451,34516,31806,174761,125332
2025-04-15 10:50:16.010,150491,34561,31835,174791,125330
2025-04-15 10:50:16.011,150569,34574,31863,174809,125364
2025-04-15 10:50:16.020,150587,34606,31908,174831,125385
2025-04-15 10:50:16.027,150667,34642,31949,174862,125422
2025-04-15 10:50:16.039,150734,34681,31980,174885,125429
2025-04-15 10:50:16.047,150785,34718,32034,174914,125466
2025-04-15 10:50:16.058,150846,34747,32073,174958,125504
2025-04-15 10:50:16.077,150951,34819,32127,175008,125570
2025-04-15 10:50:16.079,151025,34853,32197,175065,125630
2025-04-15 10:50:16.090,151105,34912,32256,175116,125664
2025-04-15 10:50:16.098,151196,34968,32312,175138,125729
2025-04-15 10:50:16.111,151239,35010,32357,175166,125766
2025-04-15 10:50:16.118,151265,35036,32397,175189,125791
2025-04-15 10:50:16.142,151258,35064,32435,175217,125808
2025-04-15 10:50:16.144,151183,35054,32420,175230,125788
2025-04-15 10:50:16.150,150966,34991,32371,175190,125775
2025-04-15 10:50:16.158,150702,34858,32271,175106,125681
2025-04-15 10:50:16.170,150330,34673,32096,175022,125534
2025-04-15 10:50:16.179,149919,34450,31891,174871,125376
2025-04-15 10:50:16.190,149505,34198,31637,174730,125165
2025-04-15 10:50:16.211,149083,33942,31406,174592,124968
2025-04-15 10:50:16.212,148708,33696,31158,174480,124803
2025-04-15 10:50:16.218,148388,33459,30943,174363,124644
2025-04-15 10:50:16.231,148117,33267,30750,174309,124512
2025-04-15 10:50:16.238,147860,33094,30564,174238,124378
2025-04-15 10:50:16.250,147693,32963,30426,174192,124286
2025-04-15 10:50:16.259,147535,32845,30322,174202,124201
2025-04-15 10:50:16.276,147488,32774,30245,174181,124170
2025-04-15 10:50:16.278,147434,32727,30192,174184,124160
2025-04-15 10:50:16.291,147457,32710,30168,174174,124143
2025-04-15 10:50:16.299,147478,32694,30165,174270,124163
2025-04-15 10:50:16.311,147502,32703,30168,174294,124166
2025-04-15 10:50:16.318,147561,32733,30189,174295,124182
2025-04-15 10:50:16.343,147650,32755,30219,174325,124200
2025-04-15 10:50:16.345,147736,32786,30252,174347,124215
2025-04-15 10:50:16.351,147814,32829,30285,174375,124228
2025-04-15 10:50:16.359,147927,32869,30331,174399,124259
2025-04-15 10:50:16.371,148067,32920,30383,174431,124278
2025-04-15 10:50:16.382,148185,32995,30451,174456,124321
2025-04-15 10:50:16.391,148320,33066,30493,174492,124339
2025-04-15 10:50:16.409,148446,33154,30565,174525,124385
2025-04-15 10:50:16.411,148564,33215,30639,174543,124450
2025-04-15 10:50:16.422,148671,33287,30702,174595,124501
2025-04-15 10:50:16.430,148745,33354,30784,174652,124553
2025-04-15 10:50:16.443,148774,33391,30834,174731,124620
2025-04-15 10:50:16.450,148820,33428,30876,174733,124644
2025-04-15 10:50:16.475,148825,33455,30916,174786,124670
2025-04-15 10:50:16.476,148839,33450,30920,174776,124649
2025-04-15 10:50:16.482,148799,33446,30916,174765,124656
2025-04-15 10:50:16.491,148770,33435,30908,174730,124631
2025-04-15 10:50:16.502,148738,33422,30897,174730,124600
2025-04-15 10:50:16.510,148709,33397,30888,174720,124577
2025-04-15 10:50:16.522,148669,33385,30888,174714,124564
2025-04-15 10:50:16.541,148672,33380,30880,174727,124573
2025-04-15 10:50:16.543,148681,33382,30881,174768,124590
2025-04-15 10:50:16.551,148698,33386,30899,174810,124602
2025-04-15 10:50:16.562,148731,33387,30910,174836,124626
2025-04-15 10:50:16.570,148792,33412,30952,174891,124671
2025-04-15 10:50:16.583,148818,33450,30987,174891,124689
2025-04-15 10:50:16.607,148881,33470,31017,174968,124707
2025-04-15 10:50:16.608,148965,33509,31052,174970,124745
2025-04-15 10:50:16.610,149017,33548,31110,175016,124792
2025-04-15 10:50:16.623,149105,33606,31169,175077,124817
2025-04-15 10:50:16.630,149190,33639,31216,175117,124862
2025-04-15 10:50:16.641,149254,33707,31281,175159,124912
2025-04-15 10:50:16.651,149373,33744,31341,175197,124955
2025-04-15 10:50:16.674,149428,33790,31401,175241,124986
2025-04-15 10:50:16.676,149516,33836,31441,175248,125020
2025-04-15 10:50:16.682,149598,33891,31515,175302,125056
2025-04-15 10:50:16.694,149695,33950,31561,175319,125093
2025-04-15 10:50:16.703,149774,33989,31621,175363,125130
2025-04-15 10:50:16.714,149858,34034,31685,175370,125138
2025-04-15 10:50:16.722,149936,34092,31734,175364,125173
2025-04-15 10:50:16.739,149986,34146,31792,175426,125207
2025-04-15 10:50:16.742,150081,34193,31854,175453,125228
2025-04-15 10:50:16.746,150081,34193,31854,175453,125228
2025-04-15 10:50:16.753,150234,34283,31964,175509,125316
2025-04-15 10:50:16.762,150307,34322,32001,175543,125340
2025-04-15 10:50:16.774,150378,34380,32063,175538,125369
2025-04-15 10:50:16.783,150451,34417,32117,175601,125415
2025-04-15 10:50:16.804,150512,34454,32161,175616,125424
2025-04-15 10:50:16.806,150601,34492,32213,175632,125462
2025-04-15 10:50:16.815,150637,34558,32259,175667,125509
2025-04-15 10:50:16.822,150701,34592,32315,175694,125531
2025-04-15 10:50:16.835,150753,34631,32349,175722,125542
2025-04-15 10:50:16.842,150827,34671,32399,175740,125577
2025-04-15 10:50:16.870,150867,34700,32437,175760,125585
2025-04-15 10:50:16.871,150926,34745,32489,175792,125622
2025-04-15 10:50:16.874,150984,34785,32526,175837,125658
2025-04-15 10:50:16.882,151044,34818,32570,175838,125684
2025-04-15 10:50:16.894,151103,34859,32621,175871,125706
2025-04-15 10:50:16.903,151147,34901,32665,175903,125763
2025-04-15 10:50:16.914,151228,34941,32708,175935,125778
2025-04-15 10:50:16.936,151271,34972,32755,175946,125787
2025-04-15 10:50:16.937,151335,35032,32804,175993,125828
2025-04-15 10:50:16.942,151422,35080,32849,176013,125876
2025-04-15 10:50:16.954,151490,35126,32904,176060,125901
2025-04-15 10:50:16.962,151538,35164,32958,176076,125940
2025-04-15 10:50:16.974,151615,35195,33011,176123,125990
2025-04-15 10:50:16.982,151676,35263,33073,176157,126021
2025-04-15 10:50:17.002,151742,35308,33119,176195,126070
2025-04-15 10:50:17.006,151774,35333,33163,176246,126092
2025-04-15 10:50:17.014,151725,35353,33172,176228,126088
2025-04-15 10:50:17.026,151618,35322,33154,176199,126093
2025-04-15 10:50:17.034,151404,35256,33100,176193,126031
2025-04-15 10:50:17.046,151095,35123,32980,176089,125945
2025-04-15 10:50:17.068,150792,34941,32816,176016,125811
2025-04-15 10:50:17.070,150395,34728,32606,175894,125630
2025-04-15 10:50:17.074,150034,34515,32394,175753,125471
2025-04-15 10:50:17.086,149711,34265,32166,175653,125299
2025-04-15 10:50:17.094,149385,34081,31949,175552,125139
2025-04-15 10:50:17.106,149121,33869,31752,175477,125001
2025-04-15 10:50:17.114,148905,33715,31563,175375,124879
2025-04-15 10:50:17.136,148717,33583,31423,175317,124802
2025-04-15 10:50:17.138,148608,33489,31309,175318,124725
2025-04-15 10:50:17.146,148533,33408,31218,175316,124685
2025-04-15 10:50:17.154,148515,33344,31171,175296,124655
2025-04-15 10:50:17.166,148473,33336,31135,175322,124650
2025-04-15 10:50:17.174,148517,33328,31133,175343,124666
2025-04-15 10:50:17.202,148541,33334,31125,175416,124681
2025-04-15 10:50:17.203,148615,33337,31155,175436,124715
2025-04-15 10:50:17.206,148697,33382,31172,175485,124743
2025-04-15 10:50:17.214,148771,33409,31209,175505,124779
2025-04-15 10:50:17.226,148899,33469,31242,175513,124787
2025-04-15 10:50:17.234,149041,33542,31304,175543,124835
2025-04-15 10:50:17.246,149187,33595,31367,175574,124879
2025-04-15 10:50:17.266,149346,33671,31454,175645,124942
2025-04-15 10:50:17.268,149477,33772,31555,175711,125017
2025-04-15 10:50:17.274,149610,33845,31641,175759,125078
2025-04-15 10:50:17.286,149741,33924,31732,175839,125153
2025-04-15 10:50:17.298,149840,33992,31800,175875,125222
2025-04-15 10:50:17.306,149889,34060,31868,175943,125267
2025-04-15 10:50:17.332,149893,34081,31923,175986,125309
2025-04-15 10:50:17.333,149929,34115,31947,175974,125309
2025-04-15 10:50:17.338,149915,34116,31960,175978,125300
2025-04-15 10:50:17.345,149877,34111,31971,175960,125279
2025-04-15 10:50:17.357,149813,34094,31951,175940,125266
2025-04-15 10:50:17.366,149785,34069,31934,175881,125214
2025-04-15 10:50:17.378,149720,34014,31891,175848,125167
2025-04-15 10:50:17.397,149687,33980,31852,175829,125126
2025-04-15 10:50:17.399,149640,33944,31829,175816,125097
2025-04-15 10:50:17.406,149618,33927,31797,175791,125056
2025-04-15 10:50:17.417,149616,33924,31790,175769,125034
2025-04-15 10:50:17.426,149603,33886,31760,175759,124998
2025-04-15 10:50:17.437,149615,33897,31737,175780,124987
2025-04-15 10:50:17.446,149637,33879,31754,175789,125015
2025-04-15 10:50:17.464,149664,33896,31750,175796,125005
2025-04-15 10:50:17.466,149700,33905,31753,175779,125009
2025-04-15 10:50:17.478,149744,33919,31776,175804,125012
2025-04-15 10:50:17.486,149799,33951,31801,175804,125042
2025-04-15 10:50:17.497,149841,33970,31818,175840,125033
2025-04-15 10:50:17.506,149928,34001,31840,175869,125064
2025-04-15 10:50:17.529,149939,34013,31874,175879,125064
2025-04-15 10:50:17.530,150005,34038,31890,175902,125085
2025-04-15 10:50:17.538,150050,34068,31917,175891,125082
2025-04-15 10:50:17.549,150108,34103,31940,175890,125085
2025-04-15 10:50:17.558,150146,34125,31975,175903,125096
2025-04-15 10:50:17.565,150194,34137,31999,175877,125106
2025-04-15 10:50:17.578,150259,34172,32018,175925,125100
2025-04-15 10:50:17.595,150297,34201,32044,175915,125127
2025-04-15 10:50:17.598,150344,34223,32059,175902,125123
2025-04-15 10:50:17.609,150369,34249,32082,175944,125143
2025-04-15 10:50:17.617,150424,34269,32115,175942,125150
2025-04-15 10:50:17.629,150468,34294,32142,175931,125162
2025-04-15 10:50:17.638,150518,34306,32149,175942,125170
2025-04-15 10:50:17.661,150538,34346,32168,175967,125208
2025-04-15 10:50:17.662,150610,34360,32190,176001,125211
2025-04-15 10:50:17.670,150634,34385,32221,175965,125211
2025-04-15 10:50:17.678,150685,34394,32241,175990,125232
2025-04-15 10:50:17.689,150707,34425,32263,176004,125229
2025-04-15 10:50:17.698,150746,34444,32290,176021,125248
2025-04-15 10:50:17.709,150798,34468,32301,176035,125230
2025-04-15 10:50:17.728,150823,34488,32317,176053,125254
2025-04-15 10:50:17.729,150870,34513,32340,176063,125282
2025-04-15 10:50:17.738,150906,34529,32356,176043,125277
2025-04-15 10:50:17.750,150968,34559,32379,176082,125298
2025-04-15 10:50:17.753,150968,34559,32379,176082,125298
2025-04-15 10:50:17.757,151044,34610,32440,176093,125338
2025-04-15 10:50:17.770,151108,34645,32464,176102,125339
2025-04-15 10:50:17.793,151141,34669,32484,176134,125369
2025-04-15 10:50:17.794,151162,34696,32529,176147,125364
2025-04-15 10:50:17.797,151165,34707,32537,176191,125422
2025-04-15 10:50:17.809,151121,34703,32547,176185,125419
2025-04-15 10:50:17.818,150994,34658,32492,176160,125397
2025-04-15 10:50:17.830,150756,34590,32416,176119,125325
2025-04-15 10:50:17.837,150472,34447,32277,176048,125234
2025-04-15 10:50:17.858,150114,34276,32104,175941,125087
2025-04-15 10:50:17.860,149733,34058,31884,175814,124919
2025-04-15 10:50:17.870,149361,33831,31662,175680,124745
2025-04-15 10:50:17.877,148997,33597,31430,175542,124571
2025-04-15 10:50:17.889,148666,33385,31208,175452,124406
2025-04-15 10:50:17.902,148388,33205,31003,175362,124268
2025-04-15 10:50:17.923,148157,33019,30820,175305,124134
2025-04-15 10:50:17.925,147960,32892,30663,175238,124040
2025-04-15 10:50:17.929,147816,32788,30542,175185,123963
2025-04-15 10:50:17.941,147719,32707,30464,175170,123913
2025-04-15 10:50:17.949,147661,32652,30395,175194,123899
2025-04-15 10:50:17.961,147651,32630,30346,175211,123890
2025-04-15 10:50:17.969,147647,32609,30330,175250,123880
2025-04-15 10:50:17.989,147673,32592,30327,175275,123879
2025-04-15 10:50:17.990,147736,32630,30324,175274,123911
2025-04-15 10:50:18.002,147803,32651,30350,175333,123925
2025-04-15 10:50:18.009,147900,32684,30387,175368,123974
2025-04-15 10:50:18.021,147992,32737,30426,175375,124018
2025-04-15 10:50:18.030,148135,32781,30474,175404,124033
2025-04-15 10:50:18.055,148285,32843,30538,175430,124070
2025-04-15 10:50:18.056,148406,32931,30615,175488,124121
2025-04-15 10:50:18.062,148575,33027,30690,175537,124187
2025-04-15 10:50:18.069,148687,33082,30751,175548,124231
2025-04-15 10:50:18.081,148783,33153,30819,175595,124283
2025-04-15 10:50:18.089,148864,33215,30885,175666,124328
2025-04-15 10:50:18.101,148926,33249,30936,175671,124369
2025-04-15 10:50:18.122,148924,33283,30974,175687,124380
2025-04-15 10:50:18.124,148943,33298,30987,175684,124397
2025-04-15 10:50:18.130,148918,33303,31004,175701,124406
2025-04-15 10:50:18.142,148845,33286,30978,175670,124396
2025-04-15 10:50:18.150,148841,33263,30966,175658,124340
2025-04-15 10:50:18.161,148747,33235,30936,175632,124311
2025-04-15 10:50:18.169,148725,33210,30903,175596,124294
2025-04-15 10:50:18.188,148679,33176,30889,175579,124250
2025-04-15 10:50:18.189,148628,33149,30853,175567,124222
2025-04-15 10:50:18.201,148628,33135,30831,175579,124208
2025-04-15 10:50:18.213,148609,33130,30835,175585,124204
2025-04-15 10:50:18.222,148627,33121,30832,175613,124224
2025-04-15 10:50:18.233,148626,33125,30820,175619,124234
2025-04-15 10:50:18.253,148660,33149,30821,175635,124239
2025-04-15 10:50:18.254,148707,33142,30842,175653,124234
2025-04-15 10:50:18.261,148732,33158,30874,175684,124258
2025-04-15 10:50:18.272,148799,33177,30899,175678,124254
2025-04-15 10:50:18.281,148831,33221,30925,175709,124290
2025-04-15 10:50:18.294,148916,33241,30950,175720,124315
2025-04-15 10:50:18.301,148971,33269,30991,175720,124318
2025-04-15 10:50:18.318,149042,33331,31034,175771,124374
2025-04-15 10:50:18.321,149118,33338,31079,175830,124402
2025-04-15 10:50:18.333,149190,33406,31116,175832,124425
2025-04-15 10:50:18.341,149257,33438,31159,175851,124480
2025-04-15 10:50:18.353,149301,33464,31205,175902,124501
2025-04-15 10:50:18.360,149403,33528,31242,175925,124511
2025-04-15 10:50:18.383,149457,33545,31282,175936,124536
2025-04-15 10:50:18.384,149510,33590,31329,175950,124575
2025-04-15 10:50:18.393,149581,33622,31363,175944,124573
2025-04-15 10:50:18.402,149627,33661,31401,175964,124609
2025-04-15 10:50:18.413,149688,33702,31442,175985,124598
2025-04-15 10:50:18.422,149726,33725,31485,175986,124629
2025-04-15 10:50:18.449,149797,33747,31492,175983,124650
2025-04-15 10:50:18.450,149866,33787,31548,176009,124675
2025-04-15 10:50:18.453,149902,33814,31550,176033,124695
2025-04-15 10:50:18.462,149941,33825,31588,176018,124681
2025-04-15 10:50:18.474,149991,33868,31624,176028,124712
2025-04-15 10:50:18.481,150030,33903,31636,176052,124731
2025-04-15 10:50:18.493,150097,33934,31709,176069,124754
2025-04-15 10:50:18.516,150160,33965,31726,176098,124775
2025-04-15 10:50:18.518,150197,33992,31745,176117,124802
2025-04-15 10:50:18.520,150241,34028,31806,176160,124825
2025-04-15 10:50:18.533,150305,34055,31815,176170,124847
2025-04-15 10:50:18.545,150340,34090,31862,176182,124870
2025-04-15 10:50:18.553,150409,34119,31872,176191,124888
2025-04-15 10:50:18.565,150450,34151,31917,176228,124898
2025-04-15 10:50:18.583,150500,34180,31950,176233,124929
2025-04-15 10:50:18.585,150524,34192,31965,176253,124938
2025-04-15 10:50:18.593,150468,34205,31981,176263,124934
2025-04-15 10:50:18.605,150335,34162,31945,176239,124902
2025-04-15 10:50:18.613,150122,34079,31856,176155,124838
2025-04-15 10:50:18.624,149794,33930,31712,176101,124753
2025-04-15 10:50:18.650,149389,33729,31526,175943,124577
2025-04-15 10:50:18.651,148910,33486,31268,175803,124385
2025-04-15 10:50:18.653,148463,33225,31032,175699,124197
2025-04-15 10:50:18.665,148015,32957,30759,175517,123992
2025-04-15 10:50:18.673,147603,32722,30509,175380,123786
2025-04-15 10:50:18.685,147236,32486,30274,175278,123628
2025-04-15 10:50:18.693,146896,32285,30063,175198,123468
2025-04-15 10:50:18.715,146633,32100,29885,175116,123318
2025-04-15 10:50:18.716,146438,31981,29731,175070,123258
2025-04-15 10:50:18.725,146275,31875,29622,175055,123152
2025-04-15 10:50:18.733,146180,31791,29543,175016,123088
2025-04-15 10:50:18.745,146116,31732,29482,175028,123071
2025-04-15 10:50:18.757,146092,31715,29458,175025,123058
2025-04-15 10:50:18.759,146092,31715,29458,175025,123058
2025-04-15 10:50:18.781,146152,31711,29437,175060,123069
2025-04-15 10:50:18.782,146188,31725,29440,175057,123064
2025-04-15 10:50:18.785,146267,31757,29468,175097,123078
2025-04-15 10:50:18.793,146337,31785,29491,175174,123122
2025-04-15 10:50:18.805,146437,31830,29538,175150,123152
2025-04-15 10:50:18.813,146531,31867,29583,175237,123178
2025-04-15 10:50:18.825,146666,31938,29639,175237,123228
2025-04-15 10:50:18.847,146784,32001,29707,175270,123271
2025-04-15 10:50:18.848,146926,32071,29768,175305,123318
2025-04-15 10:50:18.857,147059,32132,29841,175336,123387
2025-04-15 10:50:18.865,147132,32201,29904,175409,123429
2025-04-15 10:50:18.877,147217,32248,29959,175411,123470
2025-04-15 10:50:18.885,147295,32294,30018,175454,123506
2025-04-15 10:50:18.912,147319,32326,30052,175451,123521
2025-04-15 10:50:18.913,147335,32339,30073,175479,123539
2025-04-15 10:50:18.917,147307,32342,30075,175499,123546
2025-04-15 10:50:18.926,147285,32326,30078,175509,123537
2025-04-15 10:50:18.937,147243,32310,30070,175446,123514
2025-04-15 10:50:18.945,147202,32273,30051,175424,123485
2025-04-15 10:50:18.957,147140,32262,30021,175417,123444
2025-04-15 10:50:18.977,147103,32219,29987,175394,123392
2025-04-15 10:50:18.979,147078,32211,29971,175366,123411
2025-04-15 10:50:18.984,147046,32181,29958,175385,123358
2025-04-15 10:50:18.996,147052,32175,29950,175385,123376
2025-04-15 10:50:19.005,147062,32171,29949,175397,123393
2025-04-15 10:50:19.016,147088,32182,29959,175395,123361
2025-04-15 10:50:19.025,147124,32190,29987,175428,123427
2025-04-15 10:50:19.043,147180,32206,30008,175460,123418
2025-04-15 10:50:19.045,147246,32244,30032,175486,123472
2025-04-15 10:50:19.056,147294,32266,30061,175503,123491
2025-04-15 10:50:19.065,147373,32313,30101,175521,123501
2025-04-15 10:50:19.078,147449,32342,30140,175557,123527
2025-04-15 10:50:19.084,147534,32388,30175,175565,123569
2025-04-15 10:50:19.108,147612,32421,30232,175586,123595
2025-04-15 10:50:19.110,147685,32464,30267,175600,123626
2025-04-15 10:50:19.117,147770,32507,30315,175658,123672
2025-04-15 10:50:19.124,147840,32543,30347,175673,123687
2025-04-15 10:50:19.137,147915,32589,30403,175677,123721
2025-04-15 10:50:19.149,147990,32628,30452,175697,123742
2025-04-15 10:50:19.156,148054,32677,30501,175733,123780
2025-04-15 10:50:19.173,148145,32716,30542,175745,123804
2025-04-15 10:50:19.176,148215,32763,30579,175799,123855
2025-04-15 10:50:19.188,148289,32791,30639,175828,123887
2025-04-15 10:50:19.196,148363,32843,30681,175863,123933
2025-04-15 10:50:19.208,148402,32880,30717,175871,123959
2025-04-15 10:50:19.216,148480,32912,30768,175917,123984
2025-04-15 10:50:19.238,148556,32933,30806,175917,124009
2025-04-15 10:50:19.239,148599,32991,30846,175950,124053
2025-04-15 10:50:19.248,148659,33025,30881,175967,124080
2025-04-15 10:50:19.257,148706,33051,30911,175994,124087
2025-04-15 10:50:19.269,148771,33087,30956,175993,124101
2025-04-15 10:50:19.276,148824,33108,30960,175993,124138
2025-04-15 10:50:19.305,148880,33137,31013,176040,124134
2025-04-15 10:50:19.307,148919,33172,31035,176029,124165
2025-04-15 10:50:19.309,148982,33212,31079,176052,124173
2025-04-15 10:50:19.317,149041,33248,31116,176086,124252
2025-04-15 10:50:19.328,149119,33274,31150,176101,124267
2025-04-15 10:50:19.337,149169,33310,31185,176147,124299
2025-04-15 10:50:19.349,149241,33367,31239,176186,124344
2025-04-15 10:50:19.372,149315,33403,31286,176212,124401
2025-04-15 10:50:19.373,149393,33454,31338,176268,124419
2025-04-15 10:50:19.377,149457,33500,31380,176292,124449
2025-04-15 10:50:19.388,149504,33531,31421,176305,124489
2025-04-15 10:50:19.396,149482,33549,31451,176342,124527
2025-04-15 10:50:19.408,149416,33542,31450,176339,124519
2025-04-15 10:50:19.417,149238,33484,31409,176297,124486
2025-04-15 10:50:19.438,148957,33359,31318,176254,124411
2025-04-15 10:50:19.439,148607,33202,31154,176175,124278
2025-04-15 10:50:19.449,148195,32975,30964,176050,124106
2025-04-15 10:50:19.461,147765,32762,30742,175925,123922
2025-04-15 10:50:19.469,147363,32508,30489,175769,123727
2025-04-15 10:50:19.480,146979,32272,30261,175649,123539
2025-04-15 10:50:19.504,146633,32062,30042,175518,123372
2025-04-15 10:50:19.505,146334,31892,29857,175405,123220
2025-04-15 10:50:19.509,146086,31722,29691,175301,123067
2025-04-15 10:50:19.520,145897,31597,29555,175245,122981
2025-04-15 10:50:19.528,145764,31498,29452,175230,122896
2025-04-15 10:50:19.541,145686,31428,29370,175230,122847
2025-04-15 10:50:19.548,145630,31398,29331,175239,122808
2025-04-15 10:50:19.572,145631,31391,29322,175220,122819
2025-04-15 10:50:19.573,145631,31391,29322,175220,122819
2025-04-15 10:50:19.574,145736,31407,29319,175294,122856
2025-04-15 10:50:19.580,145804,31455,29353,175319,122908
2025-04-15 10:50:19.588,145905,31478,29398,175359,122917
2025-04-15 10:50:19.600,145988,31528,29436,175421,122973
2025-04-15 10:50:19.608,146095,31584,29490,175408,122979
2025-04-15 10:50:19.620,146232,31639,29553,175478,123039
2025-04-15 10:50:19.639,146383,31709,29597,175496,123083
2025-04-15 10:50:19.640,146538,31787,29687,175515,123152
2025-04-15 10:50:19.649,146703,31864,29760,175591,123203
2025-04-15 10:50:19.660,146844,31935,29826,175624,123282
2025-04-15 10:50:19.669,146969,31995,29908,175616,123305
2025-04-15 10:50:19.680,147058,32069,29966,175653,123345
2025-04-15 10:50:19.705,147090,32087,30005,175667,123356
2025-04-15 10:50:19.707,147107,32098,30022,175658,123331
2025-04-15 10:50:19.708,147117,32103,30012,175605,123285
2025-04-15 10:50:19.721,147069,32071,30002,175563,123220
2025-04-15 10:50:19.729,147036,32033,29950,175488,123185
2025-04-15 10:50:19.740,146960,32001,29906,175407,123100
2025-04-15 10:50:19.748,146910,31968,29870,175348,123063
2025-04-15 10:50:19.773,146852,31935,29830,175298,123029
2025-04-15 10:50:19.775,146822,31903,29809,175291,123038
2025-04-15 10:50:19.781,146795,31911,29810,175327,123050
2025-04-15 10:50:19.792,146820,31916,29814,175427,123130
2025-04-15 10:50:19.800,146814,31940,29852,175534,123194
2025-04-15 10:50:19.813,146867,31974,29888,175636,123299
2025-04-15 10:50:19.820,146921,32016,29950,175780,123399
2025-04-15 10:50:19.839,146983,32074,30018,175863,123514
2025-04-15 10:50:19.841,147085,32119,30076,175990,123592
2025-04-15 10:50:19.852,147169,32180,30149,176032,123648
2025-04-15 10:50:19.859,147277,32230,30210,176093,123723
2025-04-15 10:50:19.873,147363,32274,30270,176086,123731
2025-04-15 10:50:19.880,147444,32324,30310,176084,123763
2025-04-15 10:50:19.908,147556,32368,30360,176075,123773
2025-04-15 10:50:19.909,147624,32415,30420,176090,123775
2025-04-15 10:50:19.912,147716,32464,30466,176104,123792
2025-04-15 10:50:19.920,147791,32522,30523,176132,123847
2025-04-15 10:50:19.932,147896,32571,30590,176157,123878
2025-04-15 10:50:19.941,147999,32638,30673,176244,123969
2025-04-15 10:50:19.952,148101,32721,30759,176297,124047
2025-04-15 10:50:19.973,148217,32797,30847,176411,124147
2025-04-15 10:50:19.975,148338,32877,30953,176506,124276
2025-04-15 10:50:19.980,148440,32966,31048,176649,124358
2025-04-15 10:50:19.992,148552,33030,31152,176726,124473
2025-04-15 10:50:20.000,148687,33114,31251,176835,124565
2025-04-15 10:50:20.012,148761,33188,31338,176924,124631
2025-04-15 10:50:20.020,148868,33269,31441,176961,124720
2025-04-15 10:50:20.038,148960,33326,31494,177014,124770
2025-04-15 10:50:20.040,149031,33374,31568,176991,124773
2025-04-15 10:50:20.053,149120,33400,31624,176982,124784
2025-04-15 10:50:20.059,149192,33457,31660,176992,124813
2025-04-15 10:50:20.072,149254,33497,31693,176953,124776
2025-04-15 10:50:20.079,149311,33518,31718,176913,124756
2025-04-15 10:50:20.104,149362,33548,31758,176863,124750
2025-04-15 10:50:20.106,149391,33559,31762,176842,124732
2025-04-15 10:50:20.112,149443,33591,31783,176802,124721
2025-04-15 10:50:20.124,149496,33611,31786,176770,124678
2025-04-15 10:50:20.133,149534,33622,31795,176746,124689
2025-04-15 10:50:20.143,149534,33622,31795,176746,124689
2025-04-15 10:50:20.152,149599,33645,31811,176695,124669
2025-04-15 10:50:20.170,149625,33654,31825,176666,124644
2025-04-15 10:50:20.172,149671,33693,31828,176651,124619
2025-04-15 10:50:20.184,149720,33696,31835,176619,124626
2025-04-15 10:50:20.192,149761,33727,31848,176585,124587
2025-04-15 10:50:20.204,149799,33742,31854,176554,124608
2025-04-15 10:50:20.211,149864,33762,31870,176547,124595
2025-04-15 10:50:20.235,149928,33817,31895,176567,124626
2025-04-15 10:50:20.237,149989,33839,31916,176559,124648
2025-04-15 10:50:20.244,150055,33882,31954,176587,124674
2025-04-15 10:50:20.252,150117,33919,31977,176627,124708
2025-04-15 10:50:20.264,150200,33954,32017,176660,124762
2025-04-15 10:50:20.272,150258,33990,32056,176702,124796
2025-04-15 10:50:20.284,150268,34029,32088,176745,124828
2025-04-15 10:50:20.303,150266,34039,32095,176733,124855
2025-04-15 10:50:20.305,150154,34021,32079,176715,124867
2025-04-15 10:50:20.312,149924,33955,32023,176681,124830
2025-04-15 10:50:20.323,149644,33816,31896,176630,124726
2025-04-15 10:50:20.332,149272,33644,31721,176514,124599
2025-04-15 10:50:20.344,148856,33421,31512,176422,124435
2025-04-15 10:50:20.352,148478,33186,31276,176267,124258
2025-04-15 10:50:20.370,148086,32967,31044,176164,124065
2025-04-15 10:50:20.371,148086,32967,31044,176164,124065
2025-04-15 10:50:20.372,147423,32555,30606,175973,123751
2025-04-15 10:50:20.383,147186,32393,30427,175873,123666
2025-04-15 10:50:20.392,146980,32247,30283,175841,123550
2025-04-15 10:50:20.404,146863,32157,30164,175797,123476
2025-04-15 10:50:20.416,146750,32089,30081,175802,123434
2025-04-15 10:50:20.435,146721,32028,30033,175786,123417
2025-04-15 10:50:20.437,146712,32014,30028,175797,123405
2025-04-15 10:50:20.444,146750,32006,30000,175848,123414
2025-04-15 10:50:20.456,146789,32024,29998,175885,123428
2025-04-15 10:50:20.464,146843,32054,30003,175896,123489
2025-04-15 10:50:20.475,146930,32096,30024,175897,123498
2025-04-15 10:50:20.484,147052,32134,30062,175938,123522
2025-04-15 10:50:20.504,147188,32183,30118,175974,123530
2025-04-15 10:50:20.506,147309,32268,30174,175981,123594
2025-04-15 10:50:20.516,147480,32337,30254,176026,123660
2025-04-15 10:50:20.524,147641,32426,30323,176069,123725
2025-04-15 10:50:20.536,147791,32505,30418,176125,123792
2025-04-15 10:50:20.543,147948,32593,30498,176207,123869
2025-04-15 10:50:20.572,148070,32674,30582,176271,123954
2025-04-15 10:50:20.573,148158,32745,30657,176315,124003
2025-04-15 10:50:20.576,148211,32796,30717,176362,124056
2025-04-15 10:50:20.583,148240,32834,30760,176378,124091
2025-04-15 10:50:20.596,148262,32850,30796,176404,124119
2025-04-15 10:50:20.604,148213,32855,30797,176402,124132
2025-04-15 10:50:20.615,148183,32849,30801,176394,124136
2025-04-15 10:50:20.636,148140,32843,30791,176394,124108
2025-04-15 10:50:20.637,148092,32816,30783,176351,124088
2025-04-15 10:50:20.645,148045,32780,30747,176327,124056
2025-04-15 10:50:20.655,147969,32777,30753,176341,124032
2025-04-15 10:50:20.664,147962,32748,30737,176326,124057
2025-04-15 10:50:20.676,147965,32738,30728,176361,124039
2025-04-15 10:50:20.683,147973,32744,30738,176356,124035
2025-04-15 10:50:20.702,147988,32761,30741,176374,124068
2025-04-15 10:50:20.708,148008,32771,30762,176418,124064
2025-04-15 10:50:20.715,148073,32798,30774,176417,124124
2025-04-15 10:50:20.728,148125,32826,30821,176430,124152
2025-04-15 10:50:20.736,148174,32849,30859,176512,124165
2025-04-15 10:50:20.748,148250,32902,30892,176515,124198
2025-04-15 10:50:20.767,148315,32935,30935,176550,124232
2025-04-15 10:50:20.769,148390,32979,30980,176558,124266
2025-04-15 10:50:20.776,148483,33013,31025,176588,124316
2025-04-15 10:50:20.787,148546,33059,31060,176625,124330
2025-04-15 10:50:20.796,148617,33105,31131,176631,124350
2025-04-15 10:50:20.807,148709,33150,31163,176652,124372
2025-04-15 10:50:20.816,148758,33196,31218,176645,124406
2025-04-15 10:50:20.833,148831,33225,31250,176678,124422
2025-04-15 10:50:20.835,148910,33259,31305,176695,124442
2025-04-15 10:50:20.847,148988,33304,31340,176705,124467
2025-04-15 10:50:20.856,149056,33328,31385,176725,124487
2025-04-15 10:50:20.868,149119,33367,31419,176722,124518
2025-04-15 10:50:20.875,149176,33413,31449,176712,124522
2025-04-15 10:50:20.899,149233,33444,31471,176735,124536
2025-04-15 10:50:20.900,149284,33448,31498,176727,124533
2025-04-15 10:50:20.908,149345,33475,31511,176672,124528
2025-04-15 10:50:20.915,149372,33505,31527,176649,124509
2025-04-15 10:50:20.928,149416,33529,31546,176628,124504
2025-04-15 10:50:20.936,149464,33532,31548,176611,124489
2025-04-15 10:50:20.964,149495,33554,31553,176586,124462
2025-04-15 10:50:20.966,149527,33567,31564,176577,124451
2025-04-15 10:50:20.967,149570,33563,31573,176533,124445
2025-04-15 10:50:20.976,149602,33589,31582,176545,124429
2025-04-15 10:50:20.987,149628,33605,31592,176539,124453
2025-04-15 10:50:20.996,149679,33639,31614,176566,124445
2025-04-15 10:50:21.007,149691,33654,31616,176585,124477
2025-04-15 10:50:21.033,149726,33681,31651,176572,124494
2025-04-15 10:50:21.035,149795,33710,31683,176608,124517
2025-04-15 10:50:21.039,149828,33725,31685,176636,124567
2025-04-15 10:50:21.048,149902,33778,31726,176668,124598
2025-04-15 10:50:21.060,149934,33796,31746,176723,124616
2025-04-15 10:50:21.067,149995,33824,31789,176746,124666
2025-04-15 10:50:21.080,150035,33861,31826,176768,124716
2025-04-15 10:50:21.102,150076,33881,31857,176798,124733
2025-04-15 10:50:21.103,150068,33916,31881,176835,124745
2025-04-15 10:50:21.108,150002,33910,31883,176872,124792
2025-04-15 10:50:21.119,149916,33857,31849,176838,124752
2025-04-15 10:50:21.127,149657,33792,31763,176811,124705
2025-04-15 10:50:21.140,149363,33647,31638,176740,124600
2025-04-15 10:50:21.148,149017,33456,31476,176614,124480
2025-04-15 10:50:21.175,148637,33253,31251,176472,124279
2025-04-15 10:50:21.177,148240,33022,31037,176342,124103
2025-04-15 10:50:21.179,147893,32809,30820,176194,123920
2025-04-15 10:50:21.187,147587,32621,30591,176067,123752
2025-04-15 10:50:21.199,147307,32422,30379,175948,123576
2025-04-15 10:50:21.208,147067,32274,30217,175865,123443
2025-04-15 10:50:21.220,146902,32150,30078,175764,123316
2025-04-15 10:50:21.241,146783,32057,29953,175720,123247
2025-04-15 10:50:21.243,146709,31964,29883,175643,123181
2025-04-15 10:50:21.248,146668,31941,29812,175663,123146
2025-04-15 10:50:21.259,146667,31936,29770,175633,123125
2025-04-15 10:50:21.267,146682,31901,29742,175649,123113
2025-04-15 10:50:21.280,146743,31948,29731,175644,123115
2025-04-15 10:50:21.287,146791,31957,29760,175674,123132
2025-04-15 10:50:21.306,146884,31986,29769,175699,123155
2025-04-15 10:50:21.311,146988,32053,29809,175707,123171
2025-04-15 10:50:21.320,147118,32094,29854,175715,123205
2025-04-15 10:50:21.332,147247,32167,29922,175753,123260
2025-04-15 10:50:21.339,147247,32167,29922,175753,123260
2025-04-15 10:50:21.352,147413,32240,29978,175811,123325
2025-04-15 10:50:21.373,147572,32324,30061,175851,123380
2025-04-15 10:50:21.374,147730,32424,30141,175910,123464
2025-04-15 10:50:21.375,147730,32424,30141,175910,123464
2025-04-15 10:50:21.378,147730,32424,30141,175910,123464
2025-04-15 10:50:21.380,148028,32612,30345,176071,123656
2025-04-15 10:50:21.392,148060,32657,30392,176073,123707
2025-04-15 10:50:21.399,148063,32689,30410,176104,123704
2025-04-15 10:50:21.411,148050,32704,30463,176102,123716
2025-04-15 10:50:21.419,148029,32691,30412,176074,123707
2025-04-15 10:50:21.441,147975,32674,30448,176042,123674
2025-04-15 10:50:21.443,147906,32650,30393,176052,123660
2025-04-15 10:50:21.451,147858,32614,30367,176004,123640
2025-04-15 10:50:21.460,147806,32589,30367,175985,123597
2025-04-15 10:50:21.471,147782,32574,30329,175982,123582
2025-04-15 10:50:21.480,147749,32541,30317,175990,123575
2025-04-15 10:50:21.509,147730,32552,30313,175995,123585
2025-04-15 10:50:21.511,147747,32538,30309,176007,123573
2025-04-15 10:50:21.512,147770,32550,30322,176015,123604
2025-04-15 10:50:21.520,147803,32563,30336,176048,123607
2025-04-15 10:50:21.531,147832,32601,30350,176085,123634
2025-04-15 10:50:21.540,147894,32615,30382,176108,123648
2025-04-15 10:50:21.551,147940,32642,30402,176120,123676
2025-04-15 10:50:21.575,148016,32684,30437,176107,123692
2025-04-15 10:50:21.576,148097,32703,30482,176112,123718
2025-04-15 10:50:21.584,148128,32729,30495,176146,123727
2025-04-15 10:50:21.592,148213,32772,30534,176139,123725
2025-04-15 10:50:21.603,148285,32827,30553,176134,123752
2025-04-15 10:50:21.611,148355,32859,30613,176154,123761
2025-04-15 10:50:21.623,148424,32883,30638,176159,123777
2025-04-15 10:50:21.640,148506,32934,30672,176164,123805
2025-04-15 10:50:21.643,148568,32967,30708,176146,123785
2025-04-15 10:50:21.651,148636,32992,30745,176155,123828
2025-04-15 10:50:21.663,148695,33038,30786,176168,123852
2025-04-15 10:50:21.671,148757,33081,30817,176218,123870
2025-04-15 10:50:21.684,148820,33113,30851,176192,123894
2025-04-15 10:50:21.707,148892,33148,30889,176214,123927
2025-04-15 10:50:21.709,148946,33194,30929,176264,123938
2025-04-15 10:50:21.712,148998,33228,30962,176282,123986
2025-04-15 10:50:21.723,149060,33267,30998,176299,124030
2025-04-15 10:50:21.731,149110,33300,31037,176299,124057
2025-04-15 10:50:21.743,149170,33335,31085,176331,124089
2025-04-15 10:50:21.751,149219,33369,31112,176368,124110
2025-04-15 10:50:21.776,149270,33404,31155,176396,124116
2025-04-15 10:50:21.778,149346,33447,31189,176438,124163
2025-04-15 10:50:21.783,149402,33469,31221,176450,124182
2025-04-15 10:50:21.790,149449,33513,31275,176493,124243
2025-04-15 10:50:21.803,149508,33546,31314,176483,124272
2025-04-15 10:50:21.811,149551,33591,31350,176534,124300
2025-04-15 10:50:21.823,149643,33631,31388,176543,124324
2025-04-15 10:50:21.842,149685,33679,31444,176570,124365
2025-04-15 10:50:21.843,149751,33701,31480,176569,124385
2025-04-15 10:50:21.851,149817,33751,31516,176618,124430
2025-04-15 10:50:21.863,149833,33773,31548,176612,124439
2025-04-15 10:50:21.871,149822,33793,31558,176624,124449
2025-04-15 10:50:21.882,149747,33774,31556,176615,124434
2025-04-15 10:50:21.907,149533,33695,31486,176571,124379
2025-04-15 10:50:21.908,149242,33572,31385,176472,124312
2025-04-15 10:50:21.916,148842,33381,31195,176339,124106
2025-04-15 10:50:21.923,148376,33149,30963,176181,123937
2025-04-15 10:50:21.935,147890,32886,30714,176033,123725
2025-04-15 10:50:21.943,147438,32635,30446,175852,123465
2025-04-15 10:50:21.955,147021,32383,30188,175712,123286
2025-04-15 10:50:21.971,146629,32148,29954,175558,123088
2025-04-15 10:50:21.975,146292,31941,29740,175457,122938
2025-04-15 10:50:21.982,146040,31772,29556,175348,122795
2025-04-15 10:50:21.995,145810,31649,29416,175298,122680
2025-04-15 10:50:22.003,145690,31539,29298,175263,122620
2025-04-15 10:50:22.015,145580,31471,29220,175221,122551
2025-04-15 10:50:22.039,145526,31426,29161,175253,122518
2025-04-15 10:50:22.041,145505,31416,29123,175251,122492
2025-04-15 10:50:22.043,145516,31418,29118,175272,122522
2025-04-15 10:50:22.055,145591,31436,29119,175268,122521
2025-04-15 10:50:22.062,145629,31468,29159,175293,122543
2025-04-15 10:50:22.075,145718,31493,29177,175312,122579
2025-04-15 10:50:22.083,145795,31522,29196,175341,122586
2025-04-15 10:50:22.106,145901,31573,29250,175366,122614
2025-04-15 10:50:22.107,146007,31634,29293,175388,122661
2025-04-15 10:50:22.116,146144,31713,29333,175426,122702
2025-04-15 10:50:22.123,146297,31773,29423,175465,122754
2025-04-15 10:50:22.136,146444,31847,29485,175493,122828
2025-04-15 10:50:22.143,146581,31929,29571,175550,122879
2025-04-15 10:50:22.154,146695,31988,29634,175585,122935
2025-04-15 10:50:22.172,146785,32049,29702,175612,122996
2025-04-15 10:50:22.175,146856,32113,29763,175681,123038
2025-04-15 10:50:22.183,146870,32138,29811,175690,123061
2025-04-15 10:50:22.194,146898,32174,29836,175710,123098
2025-04-15 10:50:22.207,146875,32177,29857,175699,123101
2025-04-15 10:50:22.214,146873,32175,29856,175698,123088
2025-04-15 10:50:22.236,146799,32155,29842,175659,123066
2025-04-15 10:50:22.238,146774,32133,29822,175646,123032
2025-04-15 10:50:22.246,146694,32106,29803,175638,123012
2025-04-15 10:50:22.254,146665,32084,29788,175619,122973
2025-04-15 10:50:22.267,146647,32065,29776,175592,122972
2025-04-15 10:50:22.274,146613,32051,29768,175574,122948
2025-04-15 10:50:22.283,146613,32051,29768,175574,122948
2025-04-15 10:50:22.301,146625,32039,29773,175608,122958
2025-04-15 10:50:22.306,146641,32042,29774,175602,122963
2025-04-15 10:50:22.315,146658,32076,29774,175648,122985
2025-04-15 10:50:22.327,146719,32080,29797,175673,123018
2025-04-15 10:50:22.335,146775,32114,29830,175696,123024
2025-04-15 10:50:22.347,146827,32141,29855,175678,123043
2025-04-15 10:50:22.371,146896,32170,29891,175698,123044
2025-04-15 10:50:22.373,146982,32212,29919,175708,123088
2025-04-15 10:50:22.379,147041,32242,29953,175709,123087
2025-04-15 10:50:22.383,147041,32242,29953,175709,123087
2025-04-15 10:50:22.384,147041,32242,29953,175709,123087
2025-04-15 10:50:22.386,147299,32369,30080,175731,123141
2025-04-15 10:50:22.395,147362,32397,30118,175748,123167
2025-04-15 10:50:22.407,147445,32443,30153,175771,123191
2025-04-15 10:50:22.414,147528,32480,30201,175766,123225
2025-04-15 10:50:22.439,147599,32523,30248,175802,123270
2025-04-15 10:50:22.440,147656,32565,30307,175858,123277
2025-04-15 10:50:22.446,147745,32602,30343,175869,123324
2025-04-15 10:50:22.458,147821,32661,30399,175889,123364
2025-04-15 10:50:22.467,147885,32701,30431,175949,123425
2025-04-15 10:50:22.479,147956,32738,30480,175976,123471
2025-04-15 10:50:22.486,148003,32761,30519,176013,123491
2025-04-15 10:50:22.505,148087,32809,30571,176044,123531
2025-04-15 10:50:22.507,148146,32843,30617,176056,123571
2025-04-15 10:50:22.518,148206,32875,30649,176088,123569
2025-04-15 10:50:22.527,148264,32909,30662,176067,123602
2025-04-15 10:50:22.539,148301,32940,30696,176094,123580
2025-04-15 10:50:22.546,148372,32957,30739,176066,123617
2025-04-15 10:50:22.571,148415,32995,30767,176070,123621
2025-04-15 10:50:22.572,148473,33020,30786,176095,123633
2025-04-15 10:50:22.578,148500,33041,30805,176112,123673
2025-04-15 10:50:22.587,148571,33090,30854,176140,123686
2025-04-15 10:50:22.598,148651,33121,30886,176130,123714
2025-04-15 10:50:22.606,148699,33157,30925,176127,123717
2025-04-15 10:50:22.619,148746,33195,30945,176181,123776
2025-04-15 10:50:22.638,148848,33232,31004,176190,123798
2025-04-15 10:50:22.640,148906,33263,31047,176232,123846
2025-04-15 10:50:22.646,148982,33313,31088,176255,123866
2025-04-15 10:50:22.659,149001,33346,31127,176291,123908
2025-04-15 10:50:22.666,148993,33358,31137,176309,123928
2025-04-15 10:50:22.678,148907,33343,31129,176291,123923
2025-04-15 10:50:22.687,148705,33274,31069,176278,123883
2025-04-15 10:50:22.707,148388,33142,30950,176190,123783
2025-04-15 10:50:22.708,148016,32955,30784,176072,123653
2025-04-15 10:50:22.718,147585,32757,30573,175942,123464
2025-04-15 10:50:22.727,147110,32514,30337,175798,123284
2025-04-15 10:50:22.738,146698,32249,30096,175621,123052
2025-04-15 10:50:22.747,146279,32022,29867,175488,122872
2025-04-15 10:50:22.773,145925,31814,29636,175338,122684
2025-04-15 10:50:22.774,145629,31625,29448,175260,122541
2025-04-15 10:50:22.779,145395,31461,29281,175153,122391
2025-04-15 10:50:22.790,145196,31342,29145,175077,122278
2025-04-15 10:50:22.798,145044,31241,29030,175013,122199
2025-04-15 10:50:22.810,144967,31193,28960,174988,122144
2025-04-15 10:50:22.818,144927,31152,28906,174959,122093
2025-04-15 10:50:22.838,144938,31134,28897,174983,122096
2025-04-15 10:50:22.839,144971,31144,28882,174984,122103
2025-04-15 10:50:22.850,145022,31170,28887,175017,122123
2025-04-15 10:50:22.858,145120,31201,28922,175076,122162
2025-04-15 10:50:22.870,145181,31232,28949,175090,122176
2025-04-15 10:50:22.878,145308,31283,28990,175124,122226
2025-04-15 10:50:22.905,145408,31343,29036,175162,122281
2025-04-15 10:50:22.906,145547,31414,29106,175195,122315
2025-04-15 10:50:22.910,145714,31476,29174,175223,122381
2025-04-15 10:50:22.919,145859,31555,29249,175285,122441
2025-04-15 10:50:22.930,146032,31646,29348,175361,122503
2025-04-15 10:50:22.939,146154,31714,29426,175389,122576
2025-04-15 10:50:22.950,146238,31781,29487,175431,122621
2025-04-15 10:50:22.973,146355,31828,29545,175454,122685
2025-04-15 10:50:22.974,146434,31894,29609,175487,122713
2025-04-15 10:50:22.978,146441,31926,29619,175509,122723
2025-04-15 10:50:22.991,146449,31928,29656,175511,122733
2025-04-15 10:50:22.998,146423,31923,29655,175474,122704
2025-04-15 10:50:23.010,146419,31916,29633,175435,122691
2025-04-15 10:50:23.018,146367,31913,29634,175414,122661
2025-04-15 10:50:23.038,146325,31872,29603,175354,122626
2025-04-15 10:50:23.040,146298,31853,29580,175320,122606
2025-04-15 10:50:23.050,146251,31844,29569,175331,122591
2025-04-15 10:50:23.058,146210,31830,29548,175350,122566
2025-04-15 10:50:23.071,146216,31832,29545,175331,122589
2025-04-15 10:50:23.082,146195,31811,29548,175352,122612
2025-04-15 10:50:23.104,146245,31834,29565,175380,122641
2025-04-15 10:50:23.105,146299,31849,29603,175441,122665
2025-04-15 10:50:23.110,146327,31878,29633,175481,122707
2025-04-15 10:50:23.122,146405,31933,29683,175549,122761
2025-04-15 10:50:23.130,146489,31970,29725,175582,122811
2025-04-15 10:50:23.142,146576,32023,29770,175628,122854
2025-04-15 10:50:23.150,146647,32058,29826,175676,122908
2025-04-15 10:50:23.168,146738,32116,29886,175717,122953
2025-04-15 10:50:23.170,146802,32163,29936,175741,122991
2025-04-15 10:50:23.182,146892,32203,29988,175758,122990
2025-04-15 10:50:23.185,146892,32203,29988,175758,122990
2025-04-15 10:50:23.190,147077,32296,30075,175821,123079
2025-04-15 10:50:23.202,147188,32344,30147,175839,123109
2025-04-15 10:50:23.210,147280,32390,30193,175875,123166
2025-04-15 10:50:23.239,147366,32439,30257,175889,123193
2025-04-15 10:50:23.241,147449,32493,30305,175920,123240
2025-04-15 10:50:23.242,147513,32541,30368,175972,123288
2025-04-15 10:50:23.251,147601,32591,30410,175984,123318
2025-04-15 10:50:23.262,147693,32642,30455,176015,123361
2025-04-15 10:50:23.270,147756,32684,30500,176020,123379
2025-04-15 10:50:23.283,147832,32704,30533,176030,123360
2025-04-15 10:50:23.309,147901,32736,30581,176034,123393
2025-04-15 10:50:23.311,147938,32781,30626,176026,123408
2025-04-15 10:50:23.313,148007,32815,30655,176061,123457
2025-04-15 10:50:23.322,148085,32853,30708,176126,123494
2025-04-15 10:50:23.330,148146,32889,30747,176147,123541
2025-04-15 10:50:23.342,148222,32935,30791,176175,123595
2025-04-15 10:50:23.350,148294,32973,30836,176212,123617
2025-04-15 10:50:23.379,148339,33019,30866,176216,123661
2025-04-15 10:50:23.381,148429,33033,30886,176235,123652
2025-04-15 10:50:23.383,148485,33074,30948,176248,123697
2025-04-15 10:50:23.395,148541,33106,30983,176244,123725
2025-04-15 10:50:23.402,148611,33159,31014,176256,123744
2025-04-15 10:50:23.414,148705,33204,31055,176293,123766
2025-04-15 10:50:23.421,148777,33249,31102,176325,123811
2025-04-15 10:50:23.447,148848,33290,31158,176393,123847
2025-04-15 10:50:23.449,148918,33334,31196,176397,123915
2025-04-15 10:50:23.454,148974,33358,31244,176427,123930
2025-04-15 10:50:23.462,149009,33392,31262,176445,123946
2025-04-15 10:50:23.474,148995,33404,31275,176421,123951
2025-04-15 10:50:23.482,148910,33384,31259,176416,123947
2025-04-15 10:50:23.494,148709,33305,31206,176356,123912
2025-04-15 10:50:23.517,148419,33206,31096,176320,123832
2025-04-15 10:50:23.519,148100,33022,30940,176219,123725
2025-04-15 10:50:23.522,147693,32845,30744,176167,123589
2025-04-15 10:50:23.534,147312,32618,30523,176033,123405
2025-04-15 10:50:23.542,146947,32398,30298,175865,123248
2025-04-15 10:50:23.554,146604,32186,30085,175752,123064
2025-04-15 10:50:23.562,146287,31999,29856,175643,122872
2025-04-15 10:50:23.587,146038,31844,29677,175456,122718
2025-04-15 10:50:23.588,145823,31712,29533,175386,122592
2025-04-15 10:50:23.594,145709,31602,29423,175333,122503
2025-04-15 10:50:23.624,145606,31541,29364,175343,122487
2025-04-15 10:50:23.625,145586,31508,29317,175404,122503
2025-04-15 10:50:23.626,145587,31511,29309,175464,122507
2025-04-15 10:50:23.634,145617,31520,29321,175515,122571
2025-04-15 10:50:23.657,145680,31535,29327,175560,122604
2025-04-15 10:50:23.658,145771,31568,29362,175568,122650
2025-04-15 10:50:23.662,145856,31607,29382,175602,122662
2025-04-15 10:50:23.674,145963,31651,29411,175583,122692
2025-04-15 10:50:23.682,146083,31695,29468,175586,122690
2025-04-15 10:50:23.694,146224,31766,29526,175620,122737
2025-04-15 10:50:23.702,146393,31841,29618,175661,122768
2025-04-15 10:50:23.724,146562,31928,29693,175721,122873
2025-04-15 10:50:23.727,146716,32037,29790,175786,122944
2025-04-15 10:50:23.735,146882,32096,29885,175882,123061
2025-04-15 10:50:23.746,147025,32197,29982,175936,123133
2025-04-15 10:50:23.754,147135,32257,30057,176005,123196
2025-04-15 10:50:23.767,147204,32324,30127,176067,123260
2025-04-15 10:50:23.793,147245,32369,30179,176042,123271
2025-04-15 10:50:23.795,147267,32399,30208,176075,123278
2025-04-15 10:50:23.796,147251,32397,30224,176046,123289
2025-04-15 10:50:23.806,147234,32392,30222,176032,123281
2025-04-15 10:50:23.814,147193,32377,30223,176033,123287
2025-04-15 10:50:23.826,147166,32360,30194,175987,123253
2025-04-15 10:50:23.834,147134,32333,30178,175964,123231
2025-04-15 10:50:23.865,147092,32318,30165,175987,123207
2025-04-15 10:50:23.866,147094,32312,30140,175947,123196
2025-04-15 10:50:23.868,147079,32295,30150,175992,123197
2025-04-15 10:50:23.874,147110,32312,30155,175981,123216
2025-04-15 10:50:23.886,147131,32310,30172,176003,123234
2025-04-15 10:50:23.893,147169,32339,30186,176030,123252
2025-04-15 10:50:23.906,147237,32370,30217,176071,123300
2025-04-15 10:50:23.914,147307,32387,30259,176090,123315
2025-04-15 10:50:23.936,147359,32422,30279,176114,123367
2025-04-15 10:50:23.938,147428,32469,30329,176146,123376
2025-04-15 10:50:23.946,147504,32502,30366,176161,123397
2025-04-15 10:50:23.955,147601,32544,30410,176173,123416
2025-04-15 10:50:23.966,147634,32585,30465,176203,123494
2025-04-15 10:50:23.974,147766,32624,30512,176239,123523
2025-04-15 10:50:24.006,147834,32688,30553,176259,123579
2025-04-15 10:50:24.008,147936,32755,30626,176339,123634
2025-04-15 10:50:24.009,148038,32806,30683,176391,123693
2025-04-15 10:50:24.014,148132,32857,30745,176448,123748
2025-04-15 10:50:24.027,148231,32920,30817,176491,123792
2025-04-15 10:50:24.034,148322,32952,30872,176491,123841
2025-04-15 10:50:24.046,148370,33010,30913,176508,123847
2025-04-15 10:50:24.074,148457,33048,30944,176510,123873
2025-04-15 10:50:24.076,148534,33114,30994,176543,123904
2025-04-15 10:50:24.078,148603,33132,31034,176564,123944
2025-04-15 10:50:24.086,148664,33192,31086,176577,123964
2025-04-15 10:50:24.097,148756,33232,31122,176604,123986
2025-04-15 10:50:24.106,148830,33268,31179,176630,124036
2025-04-15 10:50:24.117,148894,33325,31209,176653,124072
2025-04-15 10:50:24.144,148975,33332,31259,176666,124118
2025-04-15 10:50:24.145,149039,33392,31293,176677,124141
2025-04-15 10:50:24.147,149115,33442,31334,176698,124166
2025-04-15 10:50:24.158,149190,33465,31368,176734,124182
2025-04-15 10:50:24.165,149267,33535,31420,176762,124237
2025-04-15 10:50:24.177,149349,33574,31468,176797,124286
2025-04-15 10:50:24.190,149414,33627,31519,176818,124314
2025-04-15 10:50:24.191,149414,33627,31519,176818,124314
2025-04-15 10:50:24.212,149557,33728,31608,176898,124403
2025-04-15 10:50:24.214,149636,33751,31660,176939,124466
2025-04-15 10:50:24.217,149672,33804,31720,176992,124511
2025-04-15 10:50:24.225,149697,33841,31730,177058,124570
2025-04-15 10:50:24.237,149613,33845,31766,177064,124589
2025-04-15 10:50:24.246,149469,33811,31726,177076,124600
2025-04-15 10:50:24.258,149281,33731,31635,177034,124540
2025-04-15 10:50:24.281,149036,33612,31551,176961,124465
2025-04-15 10:50:24.283,148751,33472,31347,176826,124333
2025-04-15 10:50:24.285,148457,33303,31180,176706,124167
2025-04-15 10:50:24.298,148159,33131,31017,176582,124036
2025-04-15 10:50:24.306,147911,32960,30795,176484,123910
2025-04-15 10:50:24.318,147708,32829,30660,176372,123776
2025-04-15 10:50:24.325,147525,32716,30502,176320,123670
2025-04-15 10:50:24.359,147399,32625,30398,176269,123590
2025-04-15 10:50:24.361,147305,32557,30323,176265,123572
2025-04-15 10:50:24.363,147243,32532,30264,176273,123548
2025-04-15 10:50:24.370,147240,32523,30254,176311,123587
2025-04-15 10:50:24.378,147284,32526,30250,176394,123636
2025-04-15 10:50:24.389,147343,32555,30276,176432,123696
2025-04-15 10:50:24.397,147433,32601,30309,176508,123760
2025-04-15 10:50:24.429,147523,32643,30343,176545,123798
2025-04-15 10:50:24.431,147643,32714,30397,176558,123825
2025-04-15 10:50:24.433,147795,32763,30449,176593,123861
2025-04-15 10:50:24.438,147945,32851,30529,176612,123924
2025-04-15 10:50:24.450,148114,32938,30608,176636,123944
2025-04-15 10:50:24.458,148287,33033,30702,176687,124022
2025-04-15 10:50:24.469,148456,33146,30804,176756,124117
2025-04-15 10:50:24.478,148623,33232,30897,176851,124190
2025-04-15 10:50:24.499,148775,33334,31008,176888,124289
2025-04-15 10:50:24.501,148885,33420,31099,176978,124367
2025-04-15 10:50:24.510,148957,33497,31178,177002,124440
2025-04-15 10:50:24.518,149024,33549,31242,177053,124489
2025-04-15 10:50:24.530,149064,33587,31280,177085,124556
2025-04-15 10:50:24.537,149064,33610,31317,177092,124542
2025-04-15 10:50:24.567,149058,33614,31312,177092,124544
2025-04-15 10:50:24.569,149012,33626,31313,177051,124532
2025-04-15 10:50:24.571,148989,33610,31303,177027,124521
2025-04-15 10:50:24.578,148966,33604,31277,177012,124481
2025-04-15 10:50:24.590,148930,33593,31274,177000,124474
2025-04-15 10:50:24.597,148907,33596,31266,177033,124492
2025-04-15 10:50:24.610,148912,33584,31266,177009,124476
2025-04-15 10:50:24.635,148933,33603,31273,177023,124504
2025-04-15 10:50:24.637,148955,33609,31273,177088,124526
2025-04-15 10:50:24.638,148980,33638,31292,177035,124536
2025-04-15 10:50:24.649,149031,33673,31295,177062,124549
2025-04-15 10:50:24.661,149085,33696,31332,177097,124564
2025-04-15 10:50:24.669,149155,33728,31356,177119,124597
2025-04-15 10:50:24.682,149238,33779,31389,177155,124646
2025-04-15 10:50:24.703,149318,33817,31430,177177,124681
2025-04-15 10:50:24.705,149373,33860,31463,177202,124704
2025-04-15 10:50:24.710,149479,33904,31520,177222,124779
2025-04-15 10:50:24.721,149529,33963,31562,177283,124773
2025-04-15 10:50:24.729,149529,33963,31562,177283,124773
2025-04-15 10:50:24.742,149617,34001,31588,177285,124810
2025-04-15 10:50:24.749,149703,34055,31645,177288,124840
2025-04-15 10:50:24.769,149751,34097,31662,177286,124819
2025-04-15 10:50:24.770,149822,34140,31717,177278,124920
2025-04-15 10:50:24.781,149888,34183,31734,177319,124877
2025-04-15 10:50:24.793,149980,34238,31787,177329,124903
2025-04-15 10:50:24.796,149980,34238,31787,177329,124903
2025-04-15 10:50:24.798,149980,34238,31787,177329,124903
2025-04-15 10:50:24.801,150175,34373,31882,177338,125002
2025-04-15 10:50:24.810,150236,34404,31914,177361,125008
2025-04-15 10:50:24.836,150304,34440,31942,177376,125016
2025-04-15 10:50:24.837,150352,34489,31961,177356,125035
2025-04-15 10:50:24.841,150409,34520,31994,177396,125037
2025-04-15 10:50:24.849,150459,34559,32011,177391,125051
2025-04-15 10:50:24.862,150528,34590,32025,177402,125071
2025-04-15 10:50:24.870,150592,34636,32077,177401,125110
2025-04-15 10:50:24.881,150631,34663,32094,177420,125138
2025-04-15 10:50:24.902,150707,34723,32128,177477,125178
2025-04-15 10:50:24.904,150778,34759,32176,177478,125233
2025-04-15 10:50:24.913,150829,34802,32205,177531,125258
2025-04-15 10:50:24.921,150881,34857,32262,177563,125294
2025-04-15 10:50:24.934,150927,34890,32286,177588,125347
2025-04-15 10:50:24.941,150917,34913,32294,177614,125359
2025-04-15 10:50:24.969,150857,34910,32272,177625,125342
2025-04-15 10:50:24.970,150713,34878,32207,177556,125304
2025-04-15 10:50:24.973,150491,34779,32117,177474,125221
2025-04-15 10:50:24.981,150206,34656,31972,177364,125116
2025-04-15 10:50:24.993,149878,34500,31776,177258,124963
2025-04-15 10:50:25.002,149564,34320,31571,177158,124831
2025-04-15 10:50:25.012,149248,34148,31364,177043,124705
2025-04-15 10:50:25.036,148950,33985,31170,176928,124577
2025-04-15 10:50:25.037,148695,33831,30961,176844,124454
2025-04-15 10:50:25.042,148515,33706,30799,176735,124364
2025-04-15 10:50:25.053,148333,33599,30657,176718,124281
2025-04-15 10:50:25.061,148211,33525,30538,176666,124202
2025-04-15 10:50:25.073,148143,33469,30457,176636,124194
2025-04-15 10:50:25.081,148100,33420,30394,176646,124147
2025-04-15 10:50:25.100,148076,33410,30372,176700,124167
2025-04-15 10:50:25.102,148130,33414,30360,176726,124196
2025-04-15 10:50:25.113,148158,33441,30356,176760,124198
2025-04-15 10:50:25.121,148210,33462,30390,176784,124248
2025-04-15 10:50:25.133,148327,33480,30408,176782,124284
2025-04-15 10:50:25.141,148427,33531,30441,176835,124278
2025-04-15 10:50:25.167,148521,33577,30484,176819,124288
2025-04-15 10:50:25.169,148678,33639,30527,176813,124313
2025-04-15 10:50:25.173,148804,33732,30595,176852,124355
2025-04-15 10:50:25.181,148965,33798,30667,176898,124406
2025-04-15 10:50:25.193,149116,33874,30754,176921,124478
2025-04-15 10:50:25.205,149237,33963,30844,176980,124535
2025-04-15 10:50:25.213,149331,34007,30913,177039,124598
2025-04-15 10:50:25.234,149411,34092,30968,177091,124675
2025-04-15 10:50:25.235,149439,34133,31010,177107,124684
2025-04-15 10:50:25.245,149498,34173,31041,177091,124683
2025-04-15 10:50:25.252,149482,34178,31041,177070,124671
2025-04-15 10:50:25.266,149457,34194,31034,177033,124667
2025-04-15 10:50:25.273,149413,34196,31028,177016,124655
2025-04-15 10:50:25.299,149371,34172,31012,176988,124644
2025-04-15 10:50:25.300,149346,34177,30987,176984,124645
2025-04-15 10:50:25.304,149320,34167,30970,176984,124631
2025-04-15 10:50:25.314,149289,34173,30938,176973,124622
2025-04-15 10:50:25.324,149261,34165,30942,176972,124627
2025-04-15 10:50:25.334,149278,34162,30904,176982,124628
2025-04-15 10:50:25.345,149274,34160,30899,176986,124663
2025-04-15 10:50:25.365,149298,34179,30908,177023,124655
2025-04-15 10:50:25.366,149340,34203,30921,177005,124672
2025-04-15 10:50:25.373,149378,34221,30930,177020,124682
2025-04-15 10:50:25.384,149437,34246,30950,177039,124675
2025-04-15 10:50:25.397,149483,34286,30975,177039,124707
2025-04-15 10:50:25.399,149483,34286,30975,177039,124707
2025-04-15 10:50:25.405,149605,34355,31030,177068,124739
2025-04-15 10:50:25.413,149680,34400,31059,177068,124778
2025-04-15 10:50:25.433,149755,34436,31094,177126,124817
2025-04-15 10:50:25.434,149836,34490,31142,177164,124852
2025-04-15 10:50:25.445,149903,34549,31191,177176,124903
2025-04-15 10:50:25.452,149987,34588,31251,177187,124946
2025-04-15 10:50:25.465,150058,34635,31272,177236,124957
2025-04-15 10:50:25.473,150124,34680,31316,177234,124982
2025-04-15 10:50:25.499,150210,34732,31352,177276,125036
2025-04-15 10:50:25.500,150286,34775,31402,177251,125046
2025-04-15 10:50:25.504,150340,34832,31427,177297,125056
2025-04-15 10:50:25.513,150390,34853,31469,177313,125089
2025-04-15 10:50:25.525,150464,34896,31487,177300,125103
2025-04-15 10:50:25.537,150511,34948,31516,177285,125102
2025-04-15 10:50:25.545,150576,34977,31552,177309,125114
2025-04-15 10:50:25.565,150642,35009,31581,177302,125148
2025-04-15 10:50:25.567,150707,35059,31622,177339,125190
2025-04-15 10:50:25.577,150772,35109,31670,177393,125245
2025-04-15 10:50:25.584,150836,35165,31713,177441,125288
2025-04-15 10:50:25.597,150910,35222,31759,177501,125354
2025-04-15 10:50:25.605,150976,35276,31802,177558,125397
2025-04-15 10:50:25.633,151087,35312,31835,177575,125467
2025-04-15 10:50:25.635,151140,35376,31852,177557,125464
2025-04-15 10:50:25.637,151179,35418,31894,177565,125459
2025-04-15 10:50:25.644,151224,35439,31921,177530,125446
2025-04-15 10:50:25.657,151242,35460,31939,177497,125429
2025-04-15 10:50:25.664,151207,35469,31933,177487,125442
2025-04-15 10:50:25.677,151126,35474,31900,177480,125398
2025-04-15 10:50:25.705,150924,35401,31815,177434,125377
2025-04-15 10:50:25.707,150665,35315,31681,177343,125291
2025-04-15 10:50:25.709,150306,35163,31501,177291,125200
2025-04-15 10:50:25.718,149943,34973,31278,177133,125044
2025-04-15 10:50:25.725,149569,34775,31029,176985,124894
2025-04-15 10:50:25.737,149211,34577,30773,176846,124728
2025-04-15 10:50:25.745,148872,34386,30533,176723,124587
2025-04-15 10:50:25.775,148580,34211,30314,176624,124470
2025-04-15 10:50:25.776,148319,34065,30121,176580,124372
2025-04-15 10:50:25.778,148143,33935,29964,176485,124270
2025-04-15 10:50:25.785,147989,33838,29834,176460,124210
2025-04-15 10:50:25.798,147895,33772,29747,176474,124207
2025-04-15 10:50:25.804,147874,33721,29689,176475,124198
2025-04-15 10:50:25.818,147836,33704,29651,176521,124191
2025-04-15 10:50:25.843,147896,33696,29639,176556,124199
2025-04-15 10:50:25.845,147920,33703,29650,176585,124247
2025-04-15 10:50:25.849,147952,33733,29674,176618,124296
2025-04-15 10:50:25.856,148037,33755,29711,176671,124322
2025-04-15 10:50:25.869,148137,33792,29748,176704,124393
2025-04-15 10:50:25.877,148236,33847,29798,176745,124434
2025-04-15 10:50:25.888,148351,33900,29841,176785,124461
2025-04-15 10:50:25.910,148449,33961,29902,176822,124475
2025-04-15 10:50:25.911,148576,34004,29957,176818,124507
2025-04-15 10:50:25.917,148722,34084,30019,176836,124532
2025-04-15 10:50:25.929,148841,34151,30083,176852,124576
2025-04-15 10:50:25.936,148945,34213,30142,176853,124599
2025-04-15 10:50:25.948,149021,34255,30197,176857,124617
2025-04-15 10:50:25.956,149095,34300,30227,176842,124611
2025-04-15 10:50:25.976,149172,34351,30262,176839,124643
2025-04-15 10:50:25.977,149184,34376,30268,176833,124671
2025-04-15 10:50:25.988,149179,34393,30310,176839,124682
