Timestamp,PPG1,PPG2,PPG3,PPG4,PPG5
2025-04-15 11:08:04.220,196117,15988,20242,87508,129033
2025-04-15 11:08:04.254,196050,15978,20264,87506,129049
2025-04-15 11:08:04.255,195906,15974,20296,87352,128854
2025-04-15 11:08:04.256,195728,15994,20338,87204,128713
2025-04-15 11:08:04.257,195577,16021,20396,87119,128627
2025-04-15 11:08:04.258,195453,16062,20457,87106,128620
2025-04-15 11:08:04.260,195204,16135,20537,87116,128651
2025-04-15 11:08:04.262,194926,16241,20631,87253,128832
2025-04-15 11:08:04.263,194639,16372,20735,87534,129186
2025-04-15 11:08:04.264,194390,16488,20825,87922,129674
2025-04-15 11:08:04.266,194249,16596,20903,88259,130091
2025-04-15 11:08:04.267,194137,16691,20953,88620,130551
2025-04-15 11:08:04.268,193932,16749,20951,88941,130945
2025-04-15 11:08:04.269,193575,16785,20913,89154,131217
2025-04-15 11:08:04.270,193139,16794,20824,89293,131432
2025-04-15 11:08:04.280,192582,16790,20726,89347,131525
2025-04-15 11:08:04.290,192035,16779,20629,89357,131585
2025-04-15 11:08:04.298,191526,16746,20525,89340,131636
2025-04-15 11:08:04.726,190996,16690,20413,89220,131535
2025-04-15 11:08:04.727,190346,16613,20305,88950,131279
2025-04-15 11:08:04.729,189829,16607,20292,88661,131000
2025-04-15 11:08:04.730,189359,16596,20283,88653,131057
2025-04-15 11:08:04.731,189005,16605,20298,88589,131058
2025-04-15 11:08:04.733,188652,16605,20306,88618,131183
2025-04-15 11:08:04.734,188253,16578,20280,88619,131239
2025-04-15 11:08:04.736,187696,16524,20224,88502,131144
2025-04-15 11:08:04.738,186993,16454,20133,88282,130959
2025-04-15 11:08:04.739,186275,16374,20056,87946,130602
2025-04-15 11:08:04.740,185725,16326,20008,87628,130318
2025-04-15 11:08:04.742,185328,16269,19970,87451,130154
2025-04-15 11:08:04.743,184862,16217,19947,87214,129892
2025-04-15 11:08:04.745,184489,16188,19943,86996,129673
2025-04-15 11:08:04.746,184206,16172,19956,86857,129545
2025-04-15 11:08:04.747,183960,16160,19965,86786,129475
2025-04-15 11:08:04.749,183777,16146,19979,86708,129412
2025-04-15 11:08:04.750,183583,16140,19995,86654,129361
2025-04-15 11:08:04.752,183360,16133,19999,86616,129319
2025-04-15 11:08:04.754,183138,16126,19992,86582,129288
2025-04-15 11:08:04.755,182895,16128,19985,86548,129251
2025-04-15 11:08:04.758,182655,16115,19974,86605,129165
2025-04-15 11:08:04.759,182379,16095,19960,86473,129181
2025-04-15 11:08:04.760,182156,16082,19935,86431,129130
2025-04-15 11:08:04.761,181908,16060,19915,86335,129042
2025-04-15 11:08:04.762,181686,16035,19891,86238,128937
2025-04-15 11:08:04.763,181540,16022,19877,86163,128851
2025-04-15 11:08:04.764,181366,16013,19870,86100,128801
2025-04-15 11:08:04.765,181258,16013,19875,86082,128780
2025-04-15 11:08:04.766,181180,16027,19888,86112,128820
2025-04-15 11:08:04.766,181132,16036,19901,86176,128901
2025-04-15 11:08:04.767,181026,16035,19897,86215,128953
2025-04-15 11:08:04.768,180971,16030,19893,86248,128979
2025-04-15 11:08:04.769,180863,16019,19877,86227,128969
2025-04-15 11:08:04.769,180768,16002,19866,86183,128916
2025-04-15 11:08:04.770,180718,15993,19868,86154,128892
2025-04-15 11:08:04.771,180667,15985,19868,86156,128895
2025-04-15 11:08:04.786,180549,15959,19848,86120,128843
2025-04-15 11:08:04.787,180433,15926,19818,86032,128725
2025-04-15 11:08:04.788,180328,15894,19797,85886,128559
2025-04-15 11:08:04.788,180258,15874,19787,85755,128407
2025-04-15 11:08:04.789,180214,15865,19793,85704,128361
2025-04-15 11:08:04.791,180119,15845,19781,85663,128295
2025-04-15 11:08:04.792,180063,15844,19778,85613,128259
2025-04-15 11:08:04.793,179979,15826,19783,85592,128242
2025-04-15 11:08:04.794,179880,15810,19768,85570,128199
2025-04-15 11:08:04.795,179775,15781,19753,85455,128101
2025-04-15 11:08:04.796,179696,15758,19746,85371,127981
2025-04-15 11:08:04.797,179553,15728,19722,85253,127865
2025-04-15 11:08:04.802,179421,15704,19700,85143,127736
2025-04-15 11:08:04.815,179297,15679,19683,85082,127651
2025-04-15 11:08:04.818,179297,15679,19683,85082,127651
2025-04-15 11:08:04.821,178918,15601,19609,84815,127348
2025-04-15 11:08:04.834,178737,15561,19576,84662,127162
2025-04-15 11:08:04.848,178556,15530,19552,84503,126993
2025-04-15 11:08:04.855,178427,15512,19532,84368,126841
2025-04-15 11:08:04.862,178368,15509,19532,84305,126770
2025-04-15 11:08:04.874,178265,15496,19521,84301,126770
2025-04-15 11:08:04.882,178168,15482,19509,84236,126699
2025-04-15 11:08:04.895,178081,15471,19508,84195,126622
2025-04-15 11:08:04.911,178001,15470,19507,84161,126629
2025-04-15 11:08:04.914,177945,15465,19511,84156,126622
2025-04-15 11:08:04.923,177947,15483,19537,84168,126640
2025-04-15 11:08:04.935,178005,15496,19585,84218,126684
2025-04-15 11:08:04.942,178105,15532,19652,84309,126780
2025-04-15 11:08:04.953,178283,15571,19740,84451,126942
2025-04-15 11:08:04.974,178545,15615,19824,84612,127140
2025-04-15 11:08:04.975,178765,15646,19890,84776,127299
2025-04-15 11:08:04.987,179046,15674,19952,84898,127439
2025-04-15 11:08:04.994,179317,15680,20007,84938,127466
2025-04-15 11:08:05.006,179563,15688,20073,84969,127469
2025-04-15 11:08:05.014,179763,15663,20095,84932,127420
2025-04-15 11:08:05.037,179996,15648,20112,84819,127235
2025-04-15 11:08:05.038,180267,15613,20114,84653,126991
2025-04-15 11:08:05.046,180341,15581,20097,84465,126746
2025-04-15 11:08:05.054,180391,15553,20088,84297,126507
2025-04-15 11:08:05.066,180522,15562,20107,84167,126340
2025-04-15 11:08:05.074,180680,15576,20129,84168,126338
2025-04-15 11:08:05.086,180854,15591,20157,84183,126341
2025-04-15 11:08:05.100,180989,15618,20185,84276,126408
2025-04-15 11:08:05.105,181090,15632,20208,84324,126471
2025-04-15 11:08:05.114,181182,15639,20231,84373,126502
2025-04-15 11:08:05.127,181243,15644,20243,84374,126477
2025-04-15 11:08:05.134,181272,15646,20253,84354,126449
2025-04-15 11:08:05.146,181237,15655,20258,84324,126418
2025-04-15 11:08:05.163,181254,15669,20268,84337,126423
2025-04-15 11:08:05.166,181263,15675,20283,84373,126458
2025-04-15 11:08:05.174,181288,15681,20292,84386,126463
2025-04-15 11:08:05.186,181267,15688,20301,84404,126466
2025-04-15 11:08:05.194,181213,15685,20291,84394,126470
2025-04-15 11:08:05.206,181168,15675,20284,84339,126394
2025-04-15 11:08:05.226,181166,15664,20274,84288,126309
2025-04-15 11:08:05.227,181141,15652,20264,84192,126201
2025-04-15 11:08:05.238,181143,15632,20236,84099,126075
2025-04-15 11:08:05.246,181125,15615,20228,84003,125932
2025-04-15 11:08:05.257,181125,15615,20228,84003,125932
2025-04-15 11:08:05.266,181135,15604,20214,83865,125783
2025-04-15 11:08:05.288,181174,15589,20198,83799,125683
2025-04-15 11:08:05.289,181246,15579,20182,83739,125596
2025-04-15 11:08:05.298,181271,15568,20173,83658,125489
2025-04-15 11:08:05.306,181323,15566,20162,83627,125445
2025-04-15 11:08:05.318,181487,15573,20169,83618,125405
2025-04-15 11:08:05.325,181647,15584,20186,83670,125456
2025-04-15 11:08:05.351,181790,15591,20184,83730,125520
2025-04-15 11:08:05.352,181903,15589,20188,83770,125530
2025-04-15 11:08:05.358,181994,15586,20181,83773,125533
2025-04-15 11:08:05.366,182054,15582,20171,83771,125505
2025-04-15 11:08:05.378,182125,15579,20158,83761,125495
2025-04-15 11:08:05.386,182230,15570,20148,83767,125480
2025-04-15 11:08:05.397,182285,15557,20130,83753,125467
2025-04-15 11:08:05.414,182308,15532,20101,83689,125385
2025-04-15 11:08:05.417,182373,15530,20085,83633,125305
2025-04-15 11:08:05.422,182373,15530,20085,83633,125305
2025-04-15 11:08:05.426,182555,15539,20087,83680,125321
2025-04-15 11:08:05.439,182687,15546,20089,83720,125379
2025-04-15 11:08:05.450,182809,15555,20097,83782,125457
2025-04-15 11:08:05.458,182905,15555,20089,83843,125527
2025-04-15 11:08:05.476,182948,15555,20089,83876,125560
2025-04-15 11:08:05.478,182942,15545,20075,83888,125561
2025-04-15 11:08:05.490,182946,15539,20064,83848,125532
2025-04-15 11:08:05.498,182979,15534,20053,83844,125504
2025-04-15 11:08:05.510,183009,15531,20040,83835,125511
2025-04-15 11:08:05.517,183043,15524,20032,83836,125500
2025-04-15 11:08:05.539,183055,15509,20014,83838,125492
2025-04-15 11:08:05.540,183059,15494,19985,83813,125462
2025-04-15 11:08:05.550,183049,15472,19955,83757,125375
2025-04-15 11:08:05.558,183058,15451,19931,83675,125293
2025-04-15 11:08:05.570,183067,15422,19902,83609,125205
2025-04-15 11:08:05.578,183063,15398,19870,83516,125080
2025-04-15 11:08:05.601,182997,15360,19833,83399,124939
2025-04-15 11:08:05.603,182867,15313,19789,83222,124728
2025-04-15 11:08:05.610,182696,15270,19751,83004,124449
2025-04-15 11:08:05.618,182480,15221,19708,82797,124170
2025-04-15 11:08:05.630,182245,15179,19668,82567,123904
2025-04-15 11:08:05.637,182025,15152,19624,82371,123673
2025-04-15 11:08:05.650,181858,15124,19587,82239,123503
2025-04-15 11:08:05.664,181725,15107,19549,82144,123392
2025-04-15 11:08:05.671,181674,15096,19520,82071,123327
2025-04-15 11:08:05.678,181677,15091,19497,82048,123286
2025-04-15 11:08:05.690,181801,15105,19502,82075,123337
2025-04-15 11:08:05.702,181932,15114,19510,82178,123455
2025-04-15 11:08:05.709,182159,15136,19527,82282,123576
2025-04-15 11:08:05.726,182420,15151,19538,82440,123751
2025-04-15 11:08:05.730,182716,15187,19563,82580,123945
2025-04-15 11:08:05.741,183056,15216,19587,82788,124195
2025-04-15 11:08:05.750,183462,15231,19598,82987,124423
2025-04-15 11:08:05.763,183859,15241,19604,83154,124619
2025-04-15 11:08:05.769,184235,15235,19601,83268,124737
2025-04-15 11:08:05.790,184536,15212,19571,83304,124773
2025-04-15 11:08:05.791,184847,15167,19536,83248,124687
2025-04-15 11:08:05.801,185123,15127,19494,83177,124588
2025-04-15 11:08:05.809,185336,15081,19446,83051,124436
2025-04-15 11:08:05.822,185424,15028,19400,82878,124223
2025-04-15 11:08:05.825,185424,15028,19400,82878,124223
2025-04-15 11:08:05.830,185508,14919,19299,82509,123756
2025-04-15 11:08:05.853,185466,14879,19249,82302,123504
2025-04-15 11:08:05.854,185415,14845,19222,82124,123282
2025-04-15 11:08:05.861,185386,14830,19213,81979,123103
2025-04-15 11:08:05.870,185296,14832,19214,81881,122967
2025-04-15 11:08:05.882,185290,14842,19231,81875,122932
2025-04-15 11:08:05.889,185300,14855,19246,81893,122954
2025-04-15 11:08:05.901,185342,14877,19266,81955,123041
2025-04-15 11:08:05.916,185309,14902,19276,82022,123113
2025-04-15 11:08:05.922,185311,14904,19272,82073,123180
2025-04-15 11:08:05.929,185370,14912,19268,82084,123196
2025-04-15 11:08:05.942,185397,14914,19264,82113,123215
2025-04-15 11:08:05.953,185387,14908,19246,82111,123217
2025-04-15 11:08:05.961,185381,14889,19220,82064,123152
2025-04-15 11:08:05.978,185358,14868,19198,81999,123075
2025-04-15 11:08:05.982,185353,14839,19165,81916,122977
2025-04-15 11:08:05.993,185363,14823,19146,81829,122851
2025-04-15 11:08:06.002,185339,14805,19120,81752,122774
2025-04-15 11:08:06.014,185352,14787,19099,81678,122687
2025-04-15 11:08:06.021,185374,14777,19085,81614,122624
2025-04-15 11:08:06.041,185462,14780,19082,81603,122588
2025-04-15 11:08:06.043,185589,14792,19079,81618,122616
2025-04-15 11:08:06.054,185703,14795,19081,81658,122672
2025-04-15 11:08:06.061,185745,14795,19075,81679,122695
2025-04-15 11:08:06.074,185828,14805,19084,81674,122708
2025-04-15 11:08:06.081,185939,14816,19096,81717,122764
2025-04-15 11:08:06.103,186068,14829,19110,81766,122799
2025-04-15 11:08:06.104,186179,14839,19126,81815,122867
2025-04-15 11:08:06.114,186324,14850,19137,81874,122920
2025-04-15 11:08:06.121,186370,14856,19144,81916,122970
2025-04-15 11:08:06.133,186443,14853,19149,81941,122996
2025-04-15 11:08:06.141,186493,14852,19149,81932,122992
2025-04-15 11:08:06.166,186559,14866,19166,81934,122987
2025-04-15 11:08:06.167,186825,14886,19194,82006,123068
2025-04-15 11:08:06.174,186867,14876,19203,82051,123144
2025-04-15 11:08:06.181,186581,14847,19175,81997,123041
2025-04-15 11:08:06.194,186695,14826,19157,81852,122865
2025-04-15 11:08:06.201,187068,14843,19178,81801,122830
2025-04-15 11:08:06.214,187077,14845,19175,81889,122909
2025-04-15 11:08:06.228,186942,14836,19164,81864,122870
2025-04-15 11:08:06.234,187136,14835,19162,81782,122789
2025-04-15 11:08:06.245,187328,14848,19184,81809,122827
2025-04-15 11:08:06.254,187384,14864,19197,81875,122885
2025-04-15 11:08:06.266,187513,14874,19215,81903,122925
2025-04-15 11:08:06.273,187570,14886,19234,81956,122994
2025-04-15 11:08:06.291,187575,14886,19241,81983,122996
2025-04-15 11:08:06.294,187460,14876,19233,81943,122943
2025-04-15 11:08:06.306,187364,14864,19223,81856,122849
2025-04-15 11:08:06.313,187399,14859,19216,81770,122730
2025-04-15 11:08:06.325,187357,14859,19220,81757,122724
2025-04-15 11:08:06.334,187301,14866,19225,81724,122673
2025-04-15 11:08:06.354,187436,14876,19229,81731,122687
2025-04-15 11:08:06.355,187555,14898,19254,81796,122754
2025-04-15 11:08:06.365,187646,14909,19263,81880,122837
2025-04-15 11:08:06.373,187695,14921,19286,81927,122886
2025-04-15 11:08:06.386,187738,14934,19300,81964,122927
2025-04-15 11:08:06.393,187750,14945,19320,82002,122968
2025-04-15 11:08:06.417,187739,14958,19339,82037,123003
2025-04-15 11:08:06.418,187721,14971,19357,82054,123052
2025-04-15 11:08:06.425,187667,14993,19375,82093,123106
2025-04-15 11:08:06.434,187604,15002,19400,82148,123151
2025-04-15 11:08:06.446,187589,15030,19424,82207,123210
2025-04-15 11:08:06.453,187590,15058,19463,82284,123308
2025-04-15 11:08:06.465,187532,15083,19492,82374,123396
2025-04-15 11:08:06.480,187491,15098,19515,82461,123517
2025-04-15 11:08:06.485,187492,15108,19537,82519,123568
2025-04-15 11:08:06.497,187434,15119,19559,82548,123622
2025-04-15 11:08:06.506,187364,15135,19586,82579,123636
2025-04-15 11:08:06.517,187328,15157,19616,82608,123696
2025-04-15 11:08:06.525,187241,15184,19657,82692,123759
2025-04-15 11:08:06.542,187238,15223,19693,82773,123878
2025-04-15 11:08:06.545,187228,15246,19714,82913,124041
2025-04-15 11:08:06.557,187194,15253,19720,83001,124129
2025-04-15 11:08:06.565,187234,15252,19721,83016,124153
2025-04-15 11:08:06.578,187300,15258,19723,83044,124181
2025-04-15 11:08:06.585,187352,15260,19724,83066,124225
2025-04-15 11:08:06.604,187411,15271,19735,83083,124260
2025-04-15 11:08:06.606,187565,15291,19750,83158,124320
2025-04-15 11:08:06.618,187688,15300,19756,83229,124427
2025-04-15 11:08:06.630,187741,15302,19763,83298,124515
2025-04-15 11:08:06.631,187741,15302,19763,83298,124515
2025-04-15 11:08:06.637,187741,15302,19763,83298,124515
2025-04-15 11:08:06.645,187710,15279,19740,83297,124501
2025-04-15 11:08:06.666,187653,15265,19730,83229,124409
2025-04-15 11:08:06.667,187608,15261,19728,83168,124344
2025-04-15 11:08:06.677,187570,15266,19738,83135,124299
2025-04-15 11:08:06.685,187505,15281,19755,83154,124321
2025-04-15 11:08:06.697,187442,15296,19779,83191,124372
2025-04-15 11:08:06.705,187388,15313,19798,83233,124407
2025-04-15 11:08:06.729,187291,15322,19822,83274,124438
2025-04-15 11:08:06.730,187173,15337,19837,83290,124472
2025-04-15 11:08:06.737,187086,15350,19856,83329,124475
2025-04-15 11:08:06.746,187036,15358,19870,83340,124513
2025-04-15 11:08:06.756,187010,15367,19882,83368,124537
2025-04-15 11:08:06.769,186983,15394,19905,83419,124594
2025-04-15 11:08:06.777,187006,15418,19931,83510,124700
2025-04-15 11:08:06.792,187108,15444,19958,83609,124816
2025-04-15 11:08:06.797,187122,15466,19984,83713,124946
2025-04-15 11:08:06.809,187094,15470,19995,83792,125037
2025-04-15 11:08:06.817,187063,15468,19995,83798,125042
2025-04-15 11:08:06.829,187068,15467,19995,83767,125035
2025-04-15 11:08:06.833,187068,15467,19995,83767,125035
2025-04-15 11:08:06.837,187216,15484,20013,83831,125122
2025-04-15 11:08:06.855,187277,15487,20015,83890,125179
2025-04-15 11:08:06.857,187231,15471,19998,83886,125167
2025-04-15 11:08:06.869,187169,15450,19984,83834,125082
2025-04-15 11:08:06.877,187155,15434,19970,83748,125013
2025-04-15 11:08:06.890,187106,15427,19965,83688,124928
2025-04-15 11:08:06.897,187073,15425,19967,83647,124880
2025-04-15 11:08:06.917,187026,15414,19966,83609,124844
2025-04-15 11:08:06.918,186956,15407,19959,83582,124791
2025-04-15 11:08:06.929,186826,15391,19948,83503,124700
2025-04-15 11:08:06.937,186691,15383,19937,83421,124618
2025-04-15 11:08:06.948,186619,15382,19927,83376,124542
2025-04-15 11:08:06.957,186556,15380,19923,83341,124502
2025-04-15 11:08:06.980,186533,15379,19918,83319,124487
2025-04-15 11:08:06.981,186519,15384,19917,83326,124505
2025-04-15 11:08:06.989,186525,15393,19920,83331,124504
2025-04-15 11:08:07.000,186497,15407,19924,83369,124538
2025-04-15 11:08:07.009,186512,15422,19937,83417,124608
2025-04-15 11:08:07.021,186588,15456,19968,83517,124721
2025-04-15 11:08:07.029,186567,15478,19990,83639,124876
2025-04-15 11:08:07.043,186502,15495,20008,83726,124966
2025-04-15 11:08:07.049,186418,15498,20015,83749,125007
2025-04-15 11:08:07.061,186326,15504,20027,83760,125013
2025-04-15 11:08:07.069,186214,15496,20024,83751,124991
2025-04-15 11:08:07.081,186134,15485,20019,83700,124934
2025-04-15 11:08:07.089,186069,15459,20012,83626,124848
2025-04-15 11:08:07.105,185979,15448,19998,83527,124748
2025-04-15 11:08:07.109,185933,15442,20004,83461,124678
2025-04-15 11:08:07.121,185944,15437,20010,83433,124638
2025-04-15 11:08:07.129,185928,15425,20003,83436,124639
2025-04-15 11:08:07.142,185849,15415,20006,83381,124577
2025-04-15 11:08:07.149,185759,15390,19984,83304,124492
2025-04-15 11:08:07.168,185625,15366,19967,83195,124344
2025-04-15 11:08:07.169,185537,15344,19946,83083,124208
2025-04-15 11:08:07.181,185477,15324,19926,82961,124062
2025-04-15 11:08:07.188,185390,15291,19896,82872,123973
2025-04-15 11:08:07.201,185281,15243,19851,82722,123788
2025-04-15 11:08:07.208,185119,15179,19783,82527,123554
2025-04-15 11:08:07.231,184955,15119,19729,82270,123243
2025-04-15 11:08:07.233,184830,15084,19684,82062,122998
2025-04-15 11:08:07.240,184834,15063,19653,81889,122761
2025-04-15 11:08:07.253,184951,15064,19650,81836,122728
2025-04-15 11:08:07.260,185022,15075,19652,81877,122788
2025-04-15 11:08:07.273,185092,15092,19661,81960,122879
2025-04-15 11:08:07.280,185190,15106,19676,82028,122941
2025-04-15 11:08:07.295,185260,15128,19691,82117,123050
2025-04-15 11:08:07.301,185343,15162,19720,82203,123161
2025-04-15 11:08:07.312,185436,15200,19758,82348,123325
2025-04-15 11:08:07.321,185539,15228,19791,82522,123533
2025-04-15 11:08:07.333,185518,15244,19809,82645,123681
2025-04-15 11:08:07.341,185465,15248,19811,82675,123694
2025-04-15 11:08:07.357,185398,15247,19807,82658,123665
2025-04-15 11:08:07.361,185277,15247,19814,82628,123628
2025-04-15 11:08:07.373,185132,15247,19811,82599,123589
2025-04-15 11:08:07.380,185029,15245,19812,82562,123553
2025-04-15 11:08:07.393,184912,15240,19815,82519,123487
2025-04-15 11:08:07.400,184745,15228,19802,82479,123445
2025-04-15 11:08:07.420,184536,15199,19773,82371,123297
2025-04-15 11:08:07.421,184347,15171,19751,82200,123101
2025-04-15 11:08:07.432,184186,15140,19720,82056,122925
2025-04-15 11:08:07.437,184186,15140,19720,82056,122925
2025-04-15 11:08:07.440,183839,15080,19654,81734,122558
2025-04-15 11:08:07.453,183685,15045,19615,81575,122350
2025-04-15 11:08:07.460,183611,15018,19585,81435,122158
2025-04-15 11:08:07.482,183527,15000,19568,81333,122046
2025-04-15 11:08:07.484,183474,14995,19552,81263,121988
2025-04-15 11:08:07.492,183485,14985,19550,81250,121942
2025-04-15 11:08:07.500,183496,14985,19536,81222,121928
2025-04-15 11:08:07.512,183424,14971,19527,81210,121892
2025-04-15 11:08:07.525,183309,14957,19515,81149,121815
2025-04-15 11:08:07.545,183267,14954,19505,81090,121740
2025-04-15 11:08:07.546,183222,14959,19505,81068,121719
2025-04-15 11:08:07.553,183211,14981,19521,81103,121779
2025-04-15 11:08:07.565,183224,15007,19539,81199,121860
2025-04-15 11:08:07.572,183218,15035,19557,81292,121983
2025-04-15 11:08:07.584,183221,15046,19569,81382,122069
2025-04-15 11:08:07.593,183172,15056,19571,81444,122154
2025-04-15 11:08:07.608,183114,15063,19579,81471,122187
2025-04-15 11:08:07.612,183068,15064,19576,81484,122192
2025-04-15 11:08:07.624,183027,15069,19579,81496,122194
2025-04-15 11:08:07.633,183061,15081,19588,81514,122226
2025-04-15 11:08:07.644,183093,15096,19600,81584,122307
2025-04-15 11:08:07.653,183121,15108,19616,81648,122400
2025-04-15 11:08:07.671,183104,15111,19616,81711,122440
2025-04-15 11:08:07.672,183065,15100,19604,81686,122429
2025-04-15 11:08:07.685,183009,15077,19591,81639,122366
2025-04-15 11:08:07.692,182973,15070,19581,81575,122299
2025-04-15 11:08:07.704,182950,15063,19574,81528,122250
2025-04-15 11:08:07.712,182898,15055,19573,81501,122194
2025-04-15 11:08:07.733,182867,15053,19560,81492,122191
2025-04-15 11:08:07.734,182804,15038,19546,81452,122151
2025-04-15 11:08:07.744,182759,15023,19529,81383,122061
2025-04-15 11:08:07.753,182707,15015,19521,81327,122013
2025-04-15 11:08:07.764,182686,15013,19523,81296,121958
2025-04-15 11:08:07.773,182717,15018,19524,81290,121952
2025-04-15 11:08:07.796,182727,15036,19532,81311,122009
2025-04-15 11:08:07.798,182721,15031,19526,81363,122031
2025-04-15 11:08:07.805,182704,15030,19526,81368,122040
2025-04-15 11:08:07.813,182672,15026,19523,81346,122028
2025-04-15 11:08:07.825,182656,15021,19515,81322,121974
2025-04-15 11:08:07.837,182629,15027,19521,81314,121973
2025-04-15 11:08:07.844,182642,15022,19520,81308,121971
2025-04-15 11:08:07.859,182650,15028,19516,81305,121970
2025-04-15 11:08:07.865,182664,15037,19523,81316,121966
2025-04-15 11:08:07.877,182665,15033,19525,81355,122025
2025-04-15 11:08:07.885,182664,15036,19525,81355,122028
2025-04-15 11:08:07.896,182676,15034,19523,81357,122027
2025-04-15 11:08:07.905,182644,15032,19517,81367,122026
2025-04-15 11:08:07.921,182650,15027,19516,81336,122004
2025-04-15 11:08:07.925,182591,15011,19503,81322,121979
2025-04-15 11:08:07.936,182509,15007,19493,81259,121897
2025-04-15 11:08:07.945,182475,14994,19478,81218,121855
2025-04-15 11:08:07.957,182411,14987,19467,81157,121785
2025-04-15 11:08:07.965,182322,14967,19443,81110,121720
2025-04-15 11:08:07.983,182242,14954,19430,81034,121619
2025-04-15 11:08:07.985,182217,14948,19411,80978,121549
2025-04-15 11:08:07.997,182202,14951,19413,80961,121522
2025-04-15 11:08:08.004,182215,14959,19416,80942,121535
2025-04-15 11:08:08.017,182239,14968,19417,80980,121587
2025-04-15 11:08:08.024,182229,14973,19421,81015,121615
2025-04-15 11:08:08.045,182236,14985,19428,81058,121654
2025-04-15 11:08:08.046,182272,15008,19438,81098,121714
2025-04-15 11:08:08.057,182367,15039,19465,81196,121848
2025-04-15 11:08:08.064,182454,15075,19499,81344,122016
2025-04-15 11:08:08.077,182507,15096,19519,81504,122180
2025-04-15 11:08:08.084,182508,15115,19531,81602,122303
2025-04-15 11:08:08.108,182519,15120,19531,81671,122371
2025-04-15 11:08:08.109,182513,15126,19536,81688,122420
2025-04-15 11:08:08.116,182535,15135,19539,81735,122457
2025-04-15 11:08:08.124,182495,15131,19546,81739,122461
2025-04-15 11:08:08.136,182468,15129,19542,81727,122475
2025-04-15 11:08:08.148,182407,15124,19529,81715,122450
2025-04-15 11:08:08.156,182301,15111,19519,81670,122385
2025-04-15 11:08:08.171,182241,15092,19501,81596,122292
2025-04-15 11:08:08.176,182152,15064,19486,81508,122172
2025-04-15 11:08:08.188,182052,15047,19455,81404,122053
2025-04-15 11:08:08.196,181983,15024,19441,81302,121937
2025-04-15 11:08:08.208,181957,15012,19427,81202,121826
2025-04-15 11:08:08.216,181919,15001,19418,81151,121746
2025-04-15 11:08:08.234,181879,14995,19408,81109,121712
2025-04-15 11:08:08.236,181897,14996,19406,81082,121679
2025-04-15 11:08:08.249,181868,14999,19404,81082,121681
2025-04-15 11:08:08.256,181853,14999,19409,81088,121690
2025-04-15 11:08:08.268,181848,15001,19413,81090,121695
2025-04-15 11:08:08.276,181844,15014,19419,81104,121700
2025-04-15 11:08:08.296,181842,15031,19432,81160,121748
2025-04-15 11:08:08.298,181844,15051,19445,81213,121829
2025-04-15 11:08:08.309,181905,15067,19461,81283,121931
2025-04-15 11:08:08.316,181943,15094,19484,81385,122035
2025-04-15 11:08:08.328,181978,15107,19500,81474,122137
2025-04-15 11:08:08.337,181973,15126,19510,81556,122219
2025-04-15 11:08:08.360,181969,15130,19517,81590,122263
2025-04-15 11:08:08.361,181949,15132,19522,81602,122281
2025-04-15 11:08:08.369,181882,15127,19514,81592,122278
2025-04-15 11:08:08.376,181835,15115,19511,81543,122224
2025-04-15 11:08:08.388,181782,15113,19499,81519,122172
2025-04-15 11:08:08.396,181795,15101,19491,81478,122116
2025-04-15 11:08:08.408,181765,15100,19487,81463,122101
2025-04-15 11:08:08.422,181730,15083,19479,81422,122063
2025-04-15 11:08:08.428,181702,15072,19468,81389,122012
2025-04-15 11:08:08.440,181671,15071,19458,81339,121957
2025-04-15 11:08:08.441,181671,15071,19458,81339,121957
2025-04-15 11:08:08.449,181657,15059,19459,81289,121894
2025-04-15 11:08:08.460,181612,15057,19446,81289,121884
2025-04-15 11:08:08.467,181564,15049,19438,81270,121848
2025-04-15 11:08:08.484,181567,15044,19429,81254,121840
2025-04-15 11:08:08.488,181567,15048,19430,81240,121836
2025-04-15 11:08:08.500,181599,15056,19438,81273,121874
2025-04-15 11:08:08.509,181622,15069,19445,81306,121922
2025-04-15 11:08:08.521,181661,15078,19453,81365,121988
2025-04-15 11:08:08.528,181611,15079,19450,81408,122021
2025-04-15 11:08:08.548,181606,15072,19443,81414,122031
2025-04-15 11:08:08.549,181582,15071,19436,81406,122003
2025-04-15 11:08:08.560,181607,15083,19447,81411,122025
2025-04-15 11:08:08.568,181659,15098,19458,81461,122088
2025-04-15 11:08:08.580,181669,15098,19456,81523,122165
2025-04-15 11:08:08.588,181587,15093,19451,81533,122169
2025-04-15 11:08:08.610,181504,15081,19435,81485,122107
2025-04-15 11:08:08.611,181456,15073,19425,81425,122034
2025-04-15 11:08:08.619,181435,15069,19421,81391,122007
2025-04-15 11:08:08.641,181397,15073,19424,81414,122022
2025-04-15 11:08:08.642,181354,15065,19411,81398,122005
2025-04-15 11:08:08.648,181279,15051,19400,81352,121955
2025-04-15 11:08:08.672,181217,15036,19387,81293,121872
2025-04-15 11:08:08.673,181183,15029,19377,81233,121810
2025-04-15 11:08:08.680,181175,15025,19379,81202,121783
2025-04-15 11:08:08.687,181200,15026,19375,81195,121783
2025-04-15 11:08:08.701,181178,15018,19366,81195,121777
2025-04-15 11:08:08.708,181167,15016,19363,81184,121768
2025-04-15 11:08:08.720,181176,15019,19362,81173,121755
2025-04-15 11:08:08.735,181191,15019,19364,81205,121785
2025-04-15 11:08:08.740,181156,15020,19364,81197,121787
2025-04-15 11:08:08.752,181126,15021,19351,81196,121791
2025-04-15 11:08:08.760,181106,15020,19353,81178,121759
2025-04-15 11:08:08.772,181091,15022,19355,81191,121774
2025-04-15 11:08:08.780,181119,15036,19361,81227,121816
2025-04-15 11:08:08.797,181136,15043,19365,81275,121863
2025-04-15 11:08:08.801,181140,15051,19371,81321,121939
2025-04-15 11:08:08.812,181125,15041,19366,81332,121937
2025-04-15 11:08:08.820,181122,15027,19357,81305,121917
2025-04-15 11:08:08.832,181074,15021,19347,81274,121881
2025-04-15 11:08:08.840,181051,15021,19346,81223,121815
2025-04-15 11:08:08.859,181044,15026,19346,81224,121798
2025-04-15 11:08:08.861,181066,15023,19346,81228,121810
2025-04-15 11:08:08.872,181040,15019,19342,81234,121820
2025-04-15 11:08:08.880,180991,15015,19333,81226,121803
2025-04-15 11:08:08.892,180964,15009,19326,81205,121765
2025-04-15 11:08:08.900,180963,15006,19325,81180,121758
2025-04-15 11:08:08.921,180942,15002,19326,81158,121712
2025-04-15 11:08:08.923,180943,15004,19327,81147,121714
2025-04-15 11:08:08.931,180973,15006,19329,81178,121739
2025-04-15 11:08:08.939,180952,15007,19325,81173,121754
2025-04-15 11:08:08.952,180962,15004,19324,81174,121761
2025-04-15 11:08:08.960,180934,15000,19320,81168,121750
2025-04-15 11:08:08.984,180902,15003,19320,81148,121742
2025-04-15 11:08:08.985,180939,15008,19319,81167,121746
2025-04-15 11:08:08.992,180979,15009,19323,81205,121786
2025-04-15 11:08:09.003,180981,15019,19335,81218,121815
2025-04-15 11:08:09.012,180976,15023,19331,81236,121849
2025-04-15 11:08:09.023,180958,15015,19325,81256,121845
2025-04-15 11:08:09.032,180939,15016,19320,81255,121824
2025-04-15 11:08:09.047,180941,15021,19322,81236,121834
2025-04-15 11:08:09.052,180926,15026,19325,81269,121853
2025-04-15 11:08:09.063,180912,15039,19333,81295,121910
2025-04-15 11:08:09.072,180913,15037,19341,81330,121953
2025-04-15 11:08:09.084,180883,15042,19336,81345,121956
2025-04-15 11:08:09.092,180848,15030,19326,81327,121934
2025-04-15 11:08:09.110,180831,15026,19320,81280,121874
2025-04-15 11:08:09.112,180853,15034,19334,81273,121863
2025-04-15 11:08:09.124,180892,15053,19339,81309,121926
2025-04-15 11:08:09.132,180931,15070,19360,81416,122036
2025-04-15 11:08:09.144,180951,15079,19358,81501,122163
2025-04-15 11:08:09.152,180944,15083,19365,81525,122181
2025-04-15 11:08:09.172,180911,15084,19366,81542,122176
2025-04-15 11:08:09.173,180866,15083,19370,81539,122187
2025-04-15 11:08:09.184,180871,15092,19371,81558,122222
2025-04-15 11:08:09.191,180945,15107,19387,81594,122262
2025-04-15 11:08:09.204,180965,15113,19392,81650,122342
2025-04-15 11:08:09.212,180974,15112,19389,81687,122377
2025-04-15 11:08:09.235,180975,15102,19384,81677,122349
2025-04-15 11:08:09.236,180970,15097,19380,81632,122304
2025-04-15 11:08:09.244,180988,15110,19388,81633,122311
2025-04-15 11:08:09.248,180988,15110,19388,81633,122311
2025-04-15 11:08:09.255,181102,15142,19415,81752,122447
2025-04-15 11:08:09.264,181127,15163,19433,81850,122560
2025-04-15 11:08:09.276,181182,15185,19450,81941,122676
2025-04-15 11:08:09.283,181258,15200,19459,82037,122801
2025-04-15 11:08:09.298,181333,15220,19469,82137,122918
2025-04-15 11:08:09.304,181437,15236,19480,82234,123021
2025-04-15 11:08:09.316,181520,15252,19488,82316,123150
2025-04-15 11:08:09.323,181665,15268,19500,82388,123254
2025-04-15 11:08:09.336,181810,15286,19516,82515,123410
2025-04-15 11:08:09.343,181947,15311,19532,82639,123562
2025-04-15 11:08:09.360,182086,15324,19543,82764,123698
2025-04-15 11:08:09.364,182170,15328,19540,82831,123769
2025-04-15 11:08:09.376,182244,15326,19542,82865,123819
2025-04-15 11:08:09.383,182296,15327,19537,82886,123843
2025-04-15 11:08:09.395,182329,15322,19533,82901,123841
2025-04-15 11:08:09.403,182380,15318,19527,82898,123838
2025-04-15 11:08:09.422,182388,15305,19510,82910,123834
2025-04-15 11:08:09.424,182400,15294,19504,82876,123822
2025-04-15 11:08:09.436,182404,15283,19488,82867,123776
2025-04-15 11:08:09.444,182414,15274,19470,82835,123766
2025-04-15 11:08:09.456,182411,15261,19454,82793,123712
2025-04-15 11:08:09.464,182430,15242,19441,82779,123688
2025-04-15 11:08:09.484,182488,15232,19421,82749,123669
2025-04-15 11:08:09.486,182467,15212,19407,82724,123619
2025-04-15 11:08:09.495,182453,15197,19392,82651,123563
2025-04-15 11:08:09.507,182421,15168,19366,82574,123457
2025-04-15 11:08:09.516,182423,15135,19330,82484,123346
2025-04-15 11:08:09.527,182425,15091,19297,82361,123201
2025-04-15 11:08:09.546,182346,15047,19255,82192,123018
2025-04-15 11:08:09.548,182249,15010,19223,82029,122821
2025-04-15 11:08:09.555,182164,14970,19188,81879,122639
2025-04-15 11:08:09.567,182072,14934,19152,81718,122453
2025-04-15 11:08:09.576,182018,14885,19104,81559,122253
2025-04-15 11:08:09.588,181936,14842,19062,81399,122066
2025-04-15 11:08:09.608,181820,14810,19032,81240,121890
2025-04-15 11:08:09.609,181686,14785,19004,81082,121689
2025-04-15 11:08:09.616,181586,14771,18982,80973,121555
2025-04-15 11:08:09.627,181488,14750,18970,80886,121452
2025-04-15 11:08:09.635,181418,14735,18953,80831,121379
2025-04-15 11:08:09.648,181329,14713,18943,80734,121277
2025-04-15 11:08:09.655,181240,14699,18924,80644,121158
2025-04-15 11:08:09.671,181101,14675,18897,80570,121077
2025-04-15 11:08:09.676,180973,14645,18869,80458,120925
2025-04-15 11:08:09.688,180879,14614,18834,80327,120772
2025-04-15 11:08:09.695,180791,14590,18806,80220,120662
2025-04-15 11:08:09.708,180672,14568,18785,80115,120527
2025-04-15 11:08:09.715,180538,14550,18767,80032,120420
2025-04-15 11:08:09.733,180423,14537,18749,79935,120304
2025-04-15 11:08:09.736,180272,14524,18732,79851,120196
2025-04-15 11:08:09.747,180168,14532,18740,79773,120118
2025-04-15 11:08:09.755,180116,14555,18762,79776,120105
2025-04-15 11:08:09.768,180056,14587,18790,79838,120180
2025-04-15 11:08:09.779,180008,14627,18812,79924,120291
2025-04-15 11:08:09.796,179986,14656,18826,80024,120410
2025-04-15 11:08:09.800,179956,14677,18849,80106,120502
2025-04-15 11:08:09.807,179969,14718,18875,80207,120610
2025-04-15 11:08:09.819,180031,14755,18900,80356,120792
2025-04-15 11:08:09.828,180150,14806,18936,80532,121001
2025-04-15 11:08:09.840,180372,14856,18971,80775,121298
2025-04-15 11:08:09.859,180618,14917,19015,81033,121626
2025-04-15 11:08:09.860,180894,14986,19065,81339,122028
2025-04-15 11:08:09.868,181227,15049,19123,81708,122469
2025-04-15 11:08:09.879,181600,15113,19173,82061,122911
2025-04-15 11:08:09.887,181947,15162,19216,82400,123309
2025-04-15 11:08:09.899,182211,15197,19248,82663,123628
2025-04-15 11:08:09.908,182428,15218,19275,82865,123863
2025-04-15 11:08:09.921,182549,15241,19296,83012,124022
2025-04-15 11:08:09.928,182670,15261,19310,83121,124144
2025-04-15 11:08:09.939,182790,15276,19327,83219,124249
2025-04-15 11:08:09.947,182906,15301,19345,83347,124397
2025-04-15 11:08:09.960,183004,15306,19360,83493,124564
2025-04-15 11:08:09.967,183029,15305,19361,83542,124632
2025-04-15 11:08:09.984,183006,15293,19354,83515,124629
2025-04-15 11:08:09.988,182897,15275,19331,83444,124517
2025-04-15 11:08:10.000,182827,15247,19300,83324,124373
2025-04-15 11:08:10.007,182786,15233,19286,83207,124252
2025-04-15 11:08:10.019,182746,15225,19268,83162,124207
2025-04-15 11:08:10.027,182716,15219,19262,83095,124155
2025-04-15 11:08:10.045,182624,15202,19246,83055,124090
2025-04-15 11:08:10.051,182501,15182,19219,82974,124000
2025-04-15 11:08:10.059,182448,15163,19200,82889,123883
2025-04-15 11:08:10.072,182448,15158,19192,82849,123835
2025-04-15 11:08:10.079,182470,15154,19179,82872,123858
2025-04-15 11:08:10.092,182485,15154,19177,82871,123865
2025-04-15 11:08:10.109,182511,15150,19178,82865,123882
2025-04-15 11:08:10.111,182544,15150,19176,82876,123864
2025-04-15 11:08:10.120,182660,15160,19189,82885,123885
2025-04-15 11:08:10.131,182843,15172,19209,82937,123979
2025-04-15 11:08:10.139,183021,15190,19233,83038,124079
2025-04-15 11:08:10.151,183231,15211,19262,83131,124180
2025-04-15 11:08:10.171,183406,15211,19275,83219,124281
2025-04-15 11:08:10.172,183479,15204,19275,83247,124297
2025-04-15 11:08:10.179,183551,15190,19264,83204,124251
2025-04-15 11:08:10.191,183666,15177,19256,83134,124181
2025-04-15 11:08:10.199,183779,15166,19252,83088,124137
2025-04-15 11:08:10.211,183863,15155,19252,83065,124105
2025-04-15 11:08:10.219,183873,15139,19244,83025,124052
2025-04-15 11:08:10.233,183837,15114,19222,82920,123928
2025-04-15 11:08:10.240,183786,15091,19202,82793,123780
2025-04-15 11:08:10.251,183811,15075,19187,82674,123650
2025-04-15 11:08:10.255,183811,15075,19187,82674,123650
2025-04-15 11:08:10.260,183916,15070,19186,82576,123531
2025-04-15 11:08:10.271,183986,15080,19185,82588,123542
2025-04-15 11:08:10.280,184062,15072,19187,82593,123580
2025-04-15 11:08:10.296,184036,15061,19171,82558,123517
2025-04-15 11:08:10.299,183915,15028,19145,82456,123381
2025-04-15 11:08:10.312,183766,15011,19114,82328,123241
2025-04-15 11:08:10.319,183697,14992,19084,82217,123091
2025-04-15 11:08:10.331,183659,14978,19066,82140,123021
2025-04-15 11:08:10.343,183601,14972,19047,82089,122940
2025-04-15 11:08:10.359,183525,14961,19040,82043,122889
2025-04-15 11:08:10.363,183484,14946,19011,81988,122821
2025-04-15 11:08:10.371,183406,14917,18985,81893,122705
2025-04-15 11:08:10.383,183388,14903,18961,81823,122604
2025-04-15 11:08:10.391,183481,14897,18940,81764,122560
2025-04-15 11:08:10.403,183593,14895,18930,81782,122576
2025-04-15 11:08:10.420,183677,14891,18922,81805,122624
2025-04-15 11:08:10.424,183757,14889,18912,81808,122621
2025-04-15 11:08:10.431,183844,14879,18903,81808,122608
2025-04-15 11:08:10.444,183951,14891,18904,81820,122630
2025-04-15 11:08:10.451,184085,14895,18909,81864,122690
2025-04-15 11:08:10.463,184207,14908,18917,81922,122732
2025-04-15 11:08:10.483,184289,14903,18920,81950,122790
2025-04-15 11:08:10.484,184333,14889,18906,81951,122781
2025-04-15 11:08:10.491,184315,14873,18892,81886,122707
2025-04-15 11:08:10.503,184283,14856,18874,81806,122604
2025-04-15 11:08:10.511,184279,14832,18844,81728,122524
2025-04-15 11:08:10.522,184236,14808,18817,81636,122399
2025-04-15 11:08:10.531,184193,14768,18783,81501,122238
2025-04-15 11:08:10.545,184137,14737,18754,81353,122061
2025-04-15 11:08:10.551,184088,14718,18731,81205,121861
2025-04-15 11:08:10.563,184036,14706,18711,81114,121748
2025-04-15 11:08:10.571,184072,14694,18697,81058,121692
2025-04-15 11:08:10.584,184128,14683,18680,81015,121652
2025-04-15 11:08:10.591,184163,14684,18677,81000,121631
2025-04-15 11:08:10.608,184206,14683,18670,81001,121637
2025-04-15 11:08:10.611,184298,14686,18678,81019,121642
2025-04-15 11:08:10.623,184387,14698,18686,81051,121683
2025-04-15 11:08:10.635,184416,14702,18689,81084,121737
2025-04-15 11:08:10.643,184401,14699,18694,81086,121716
2025-04-15 11:08:10.655,184386,14700,18694,81068,121675
2025-04-15 11:08:10.670,184385,14710,18694,81064,121690
2025-04-15 11:08:10.675,184427,14707,18688,81076,121690
2025-04-15 11:08:10.683,184392,14703,18680,81058,121686
2025-04-15 11:08:10.696,184304,14684,18661,81016,121610
2025-04-15 11:08:10.703,184184,14652,18632,80909,121501
2025-04-15 11:08:10.715,184129,14632,18613,80772,121332
2025-04-15 11:08:10.732,184082,14618,18589,80663,121209
2025-04-15 11:08:10.735,184124,14609,18575,80601,121134
2025-04-15 11:08:10.743,184194,14605,18560,80597,121147
2025-04-15 11:08:10.755,184269,14606,18551,80604,121136
2025-04-15 11:08:10.763,184356,14607,18542,80614,121141
2025-04-15 11:08:10.776,184407,14608,18541,80609,121151
2025-04-15 11:08:10.795,184430,14610,18540,80606,121147
2025-04-15 11:08:10.796,184477,14611,18545,80610,121122
2025-04-15 11:08:10.803,184580,14630,18552,80630,121158
2025-04-15 11:08:10.815,184729,14648,18566,80690,121247
2025-04-15 11:08:10.823,184874,14671,18585,80786,121360
2025-04-15 11:08:10.835,185034,14693,18603,80931,121522
2025-04-15 11:08:10.842,185078,14715,18613,81027,121649
2025-04-15 11:08:10.858,185006,14712,18614,81058,121673
2025-04-15 11:08:10.863,184994,14712,18615,81040,121652
2025-04-15 11:08:10.875,185028,14715,18616,81038,121645
2025-04-15 11:08:10.883,185113,14726,18625,81078,121711
2025-04-15 11:08:10.895,185161,14736,18626,81145,121773
2025-04-15 11:08:10.906,185191,14732,18623,81188,121811
2025-04-15 11:08:10.920,185204,14727,18622,81184,121809
2025-04-15 11:08:10.928,185137,14723,18613,81141,121768
2025-04-15 11:08:10.935,185155,14719,18611,81099,121722
2025-04-15 11:08:10.947,185323,14733,18615,81117,121729
2025-04-15 11:08:10.954,185534,14757,18638,81203,121850
2025-04-15 11:08:10.967,185704,14787,18667,81345,122002
2025-04-15 11:08:10.982,185879,14811,18683,81463,122161
2025-04-15 11:08:10.986,186032,14826,18709,81579,122312
2025-04-15 11:08:10.994,186144,14844,18727,81682,122417
2025-04-15 11:08:11.006,186235,14856,18740,81764,122514
2025-04-15 11:08:11.015,186339,14872,18748,81834,122577
2025-04-15 11:08:11.026,186420,14881,18758,81892,122654
2025-04-15 11:08:11.044,186457,14881,18757,81911,122688
2025-04-15 11:08:11.047,186476,14877,18757,81902,122665
2025-04-15 11:08:11.058,186451,14871,18753,81881,122641
2025-04-15 11:08:11.060,186451,14871,18753,81881,122641
2025-04-15 11:08:11.067,186379,14849,18744,81779,122508
2025-04-15 11:08:11.075,186337,14845,18736,81736,122474
2025-04-15 11:08:11.087,186271,14843,18741,81689,122413
2025-04-15 11:08:11.106,186271,14843,18741,81689,122413
2025-04-15 11:08:11.107,186214,14836,18735,81653,122372
2025-04-15 11:08:11.115,186159,14832,18738,81606,122301
2025-04-15 11:08:11.126,186114,14827,18738,81570,122244
2025-04-15 11:08:11.134,186074,14828,18743,81518,122208
2025-04-15 11:08:11.147,186058,14846,18762,81527,122206
2025-04-15 11:08:11.155,186057,14862,18783,81578,122261
2025-04-15 11:08:11.169,186012,14884,18801,81633,122336
2025-04-15 11:08:11.179,185972,14901,18817,81701,122395
2025-04-15 11:08:11.186,185901,14921,18833,81741,122460
2025-04-15 11:08:11.198,185885,14939,18847,81778,122492
2025-04-15 11:08:11.207,185887,14965,18867,81843,122586
2025-04-15 11:08:11.231,185937,14990,18890,81932,122688
2025-04-15 11:08:11.232,185949,15017,18913,82039,122814
2025-04-15 11:08:11.239,186016,15036,18929,82145,122931
2025-04-15 11:08:11.246,186094,15059,18954,82241,123049
2025-04-15 11:08:11.260,186182,15079,18967,82333,123167
2025-04-15 11:08:11.262,186182,15079,18967,82333,123167
2025-04-15 11:08:11.267,186132,15103,18993,82479,123302
2025-04-15 11:08:11.278,186063,15112,19009,82476,123334
2025-04-15 11:08:11.293,185958,15106,19008,82469,123296
2025-04-15 11:08:11.299,185869,15111,19009,82420,123288
2025-04-15 11:08:11.307,185827,15118,19029,82403,123251
2025-04-15 11:08:11.319,185751,15125,19034,82425,123299
2025-04-15 11:08:11.326,185638,15110,19031,82410,123249
2025-04-15 11:08:11.339,185514,15075,19006,82277,123117
2025-04-15 11:08:11.355,185441,15048,18985,82137,122920
2025-04-15 11:08:11.358,185437,15054,18990,82041,122811
2025-04-15 11:08:11.366,185540,15102,19022,82082,122864
2025-04-15 11:08:11.379,185680,15129,19051,82292,123125
2025-04-15 11:08:11.387,185866,15134,19055,82441,123308
2025-04-15 11:08:11.398,185936,15110,19032,82463,123345
2025-04-15 11:08:11.417,185748,15060,18985,82364,123185
2025-04-15 11:08:11.419,185595,15027,18943,82154,122932
2025-04-15 11:08:11.426,185751,15026,18928,82005,122770
2025-04-15 11:08:11.439,186120,15069,18960,82069,122868
2025-04-15 11:08:11.451,186505,15122,19016,82282,123132
2025-04-15 11:08:11.458,186714,15184,19072,82543,123451
2025-04-15 11:08:11.479,186819,15246,19127,82779,123723
2025-04-15 11:08:11.481,186885,15298,19171,82996,123983
2025-04-15 11:08:11.491,187016,15356,19237,83214,124241
2025-04-15 11:08:11.498,187128,15410,19291,83480,124574
2025-04-15 11:08:11.511,187162,15459,19345,83713,124816
2025-04-15 11:08:11.518,187164,15494,19387,83866,124996
2025-04-15 11:08:11.542,187182,15535,19438,83980,125118
2025-04-15 11:08:11.544,187171,15564,19468,84140,125311
2025-04-15 11:08:11.551,187144,15572,19476,84217,125390
2025-04-15 11:08:11.558,187148,15574,19471,84240,125435
2025-04-15 11:08:11.571,187059,15559,19462,84190,125369
2025-04-15 11:08:11.579,186920,15544,19446,84131,125287
2025-04-15 11:08:11.591,186850,15541,19436,84052,125218
2025-04-15 11:08:11.604,186882,15545,19437,84024,125189
2025-04-15 11:08:11.610,186825,15542,19439,84034,125177
2025-04-15 11:08:11.618,186803,15542,19440,84016,125179
2025-04-15 11:08:11.630,186778,15536,19437,83974,125124
2025-04-15 11:08:11.639,186757,15542,19443,83957,125116
2025-04-15 11:08:11.650,186779,15556,19461,83994,125133
2025-04-15 11:08:11.667,186865,15567,19474,84048,125210
2025-04-15 11:08:11.671,186858,15571,19484,84105,125264
2025-04-15 11:08:11.679,186890,15581,19499,84140,125293
2025-04-15 11:08:11.690,186883,15593,19511,84169,125320
2025-04-15 11:08:11.703,186910,15602,19525,84190,125371
2025-04-15 11:08:11.711,186886,15610,19537,84231,125416
2025-04-15 11:08:11.730,186845,15623,19550,84266,125436
2025-04-15 11:08:11.731,186805,15635,19561,84305,125488
2025-04-15 11:08:11.742,186689,15645,19580,84326,125521
2025-04-15 11:08:11.751,186527,15663,19587,84330,125502
2025-04-15 11:08:11.762,186347,15667,19595,84315,125506
2025-04-15 11:08:11.771,186181,15668,19596,84302,125480
2025-04-15 11:08:11.792,186070,15665,19597,84273,125428
2025-04-15 11:08:11.793,185989,15675,19597,84279,125436
2025-04-15 11:08:11.803,185903,15674,19594,84295,125453
2025-04-15 11:08:11.810,185808,15671,19586,84274,125440
2025-04-15 11:08:11.822,185687,15661,19580,84243,125406
2025-04-15 11:08:11.831,185525,15658,19573,84203,125345
2025-04-15 11:08:11.858,185413,15648,19565,84151,125302
2025-04-15 11:08:11.859,185330,15656,19558,84151,125289
2025-04-15 11:08:11.862,185256,15645,19550,84147,125292
2025-04-15 11:08:11.870,185153,15638,19539,84143,125277
2025-04-15 11:08:11.882,184986,15624,19524,84120,125244
2025-04-15 11:08:11.890,184742,15617,19502,84033,125143
2025-04-15 11:08:11.901,184471,15606,19495,83976,125074
2025-04-15 11:08:11.920,184270,15608,19487,83914,125025
2025-04-15 11:08:11.922,184112,15608,19480,83902,125012
2025-04-15 11:08:11.930,183952,15606,19479,83924,125030
2025-04-15 11:08:11.942,183661,15589,19457,83882,124997
2025-04-15 11:08:11.954,183340,15576,19437,83798,124899
2025-04-15 11:08:11.961,183164,15565,19429,83701,124808
2025-04-15 11:08:11.983,183075,15562,19429,83661,124774
2025-04-15 11:08:11.985,182945,15558,19421,83651,124781
2025-04-15 11:08:11.994,182833,15548,19419,83619,124745
2025-04-15 11:08:12.002,182760,15543,19417,83592,124741
2025-04-15 11:08:12.015,182661,15544,19426,83572,124727
2025-04-15 11:08:12.022,182604,15555,19444,83570,124751
2025-04-15 11:08:12.046,182590,15567,19466,83634,124822
2025-04-15 11:08:12.047,182500,15580,19480,83667,124895
2025-04-15 11:08:12.054,182343,15583,19482,83680,124895
2025-04-15 11:08:12.066,182207,15567,19480,83649,124909
2025-04-15 11:08:12.067,182207,15567,19480,83649,124909
2025-04-15 11:08:12.074,181798,15552,19455,83514,124736
2025-04-15 11:08:12.083,181643,15541,19452,83454,124677
2025-04-15 11:08:12.094,181491,15537,19444,83420,124619
2025-04-15 11:08:12.108,181358,15522,19442,83354,124566
2025-04-15 11:08:12.115,181135,15498,19416,83300,124494
2025-04-15 11:08:12.122,180872,15467,19378,83181,124339
2025-04-15 11:08:12.134,180640,15444,19351,83011,124157
2025-04-15 11:08:12.142,180495,15442,19340,82921,124066
2025-04-15 11:08:12.155,180363,15437,19338,82890,124031
2025-04-15 11:08:12.170,180242,15445,19332,82870,124011
2025-04-15 11:08:12.174,180133,15452,19353,82845,124000
2025-04-15 11:08:12.182,180088,15474,19370,82898,124081
2025-04-15 11:08:12.194,180099,15497,19394,82980,124197
2025-04-15 11:08:12.206,180058,15502,19409,83058,124296
2025-04-15 11:08:12.214,179996,15508,19407,83129,124413
2025-04-15 11:08:12.233,179888,15493,19394,83136,124422
2025-04-15 11:08:12.234,179794,15470,19374,83089,124401
2025-04-15 11:08:12.246,179747,15465,19364,83024,124345
2025-04-15 11:08:12.253,179617,15448,19341,83002,124315
2025-04-15 11:08:12.266,179452,15431,19322,82935,124272
2025-04-15 11:08:12.274,179314,15429,19323,82867,124210
2025-04-15 11:08:12.294,179173,15419,19309,82832,124203
2025-04-15 11:08:12.295,179057,15409,19296,82795,124179
2025-04-15 11:08:12.307,179005,15391,19292,82755,124138
2025-04-15 11:08:12.314,178980,15390,19290,82729,124126
2025-04-15 11:08:12.326,178985,15383,19291,82721,124147
2025-04-15 11:08:12.334,178950,15371,19287,82699,124141
2025-04-15 11:08:12.357,178907,15366,19280,82695,124143
2025-04-15 11:08:12.359,178868,15365,19286,82661,124145
2025-04-15 11:08:12.366,178877,15375,19299,82691,124167
2025-04-15 11:08:12.374,178839,15381,19318,82738,124210
2025-04-15 11:08:12.386,178812,15393,19325,82768,124268
2025-04-15 11:08:12.394,178787,15405,19337,82823,124344
2025-04-15 11:08:12.406,178715,15402,19335,82873,124416
2025-04-15 11:08:12.421,178702,15403,19337,82856,124416
2025-04-15 11:08:12.426,178673,15404,19341,82868,124437
2025-04-15 11:08:12.438,178637,15395,19341,82873,124451
2025-04-15 11:08:12.445,178640,15398,19350,82839,124431
2025-04-15 11:08:12.458,178711,15419,19391,82880,124501
2025-04-15 11:08:12.466,178802,15443,19425,82976,124612
2025-04-15 11:08:12.483,178877,15464,19460,83094,124744
2025-04-15 11:08:12.486,178973,15503,19507,83219,124899
2025-04-15 11:08:12.498,179167,15549,19573,83366,125081
2025-04-15 11:08:12.505,179561,15634,19705,83595,125352
2025-04-15 11:08:12.518,180325,15750,19921,83946,125777
2025-04-15 11:08:12.526,181308,15841,20150,84365,126260
2025-04-15 11:08:12.545,182387,15919,20385,84642,126565
2025-04-15 11:08:12.546,183632,16026,20650,84903,126872
2025-04-15 11:08:12.558,185146,16155,20968,85298,127316
2025-04-15 11:08:12.566,186746,16264,21246,85812,127919
2025-04-15 11:08:12.578,188245,16348,21463,86263,128423
2025-04-15 11:08:12.586,189685,16422,21658,86693,128941
2025-04-15 11:08:12.607,191290,16489,21820,87128,129458
2025-04-15 11:08:12.608,192807,16545,21947,87603,129998
2025-04-15 11:08:12.618,194229,16588,22028,88108,130592
2025-04-15 11:08:12.626,195530,16611,22121,88520,131043
2025-04-15 11:08:12.638,196800,16645,22203,88897,131451
2025-04-15 11:08:12.645,197834,16624,22193,89239,131846
2025-04-15 11:08:12.669,198478,16507,22088,89395,131953
2025-04-15 11:08:12.671,198989,16357,21929,89168,131654
2025-04-15 11:08:12.678,199274,16212,21747,88865,131240
2025-04-15 11:08:12.690,199266,16045,21507,88541,130804
2025-04-15 11:08:12.698,198922,15884,21279,88016,130178
2025-04-15 11:08:12.710,198602,15791,21143,87469,129510
2025-04-15 11:08:12.718,198632,15792,21116,87111,129101
2025-04-15 11:08:12.732,198792,15801,21077,87168,129167
2025-04-15 11:08:12.737,198818,15809,21025,87264,129270
2025-04-15 11:08:12.749,198836,15791,20930,87322,129353
2025-04-15 11:08:12.758,198812,15712,20769,87265,129246
2025-04-15 11:08:12.769,198646,15607,20580,86994,128936
2025-04-15 11:08:12.777,198315,15508,20398,86557,128403
2025-04-15 11:08:12.795,197919,15397,20235,86069,127803
2025-04-15 11:08:12.798,197704,15332,20136,85595,127260
2025-04-15 11:08:12.810,197535,15295,20060,85368,126993
2025-04-15 11:08:12.817,197307,15284,20012,85209,126826
2025-04-15 11:08:12.829,197102,15277,19958,85090,126666
2025-04-15 11:08:12.838,196831,15262,19870,85009,126548
2025-04-15 11:08:12.857,196412,15224,19724,84912,126429
2025-04-15 11:08:12.858,195850,15146,19532,84687,126139
2025-04-15 11:08:12.870,195097,15055,19307,84354,125727
2025-04-15 11:08:12.873,195097,15055,19307,84354,125727
2025-04-15 11:08:12.877,192983,15010,19003,83659,124855
2025-04-15 11:08:12.889,191102,15072,18904,83469,124613
2025-04-15 11:08:12.898,189287,15316,18992,83390,124594
2025-04-15 11:08:12.919,188369,15616,19203,84020,125471
2025-04-15 11:08:12.920,187860,15783,19341,85001,126633
2025-04-15 11:08:12.929,186871,15823,19335,85452,127177
2025-04-15 11:08:12.941,185340,15823,19226,85404,127119
2025-04-15 11:08:12.950,183744,15795,19104,85242,126989
2025-04-15 11:08:12.961,181848,15659,18888,84990,126754
2025-04-15 11:08:12.981,179992,15487,18668,84311,125984
2025-04-15 11:08:12.982,179013,15433,18610,83663,125330
2025-04-15 11:08:12.990,178850,15461,18678,83530,125272
2025-04-15 11:08:13.001,178805,15477,18722,83655,125443
2025-04-15 11:08:13.009,178579,15463,18740,83729,125566
2025-04-15 11:08:13.022,178365,15443,18766,83734,125583
2025-04-15 11:08:13.030,178290,15439,18821,83717,125597
2025-04-15 11:08:13.044,178473,15502,18923,83801,125722
2025-04-15 11:08:13.049,178833,15561,19029,84167,126169
2025-04-15 11:08:13.062,179027,15603,19097,84461,126535
2025-04-15 11:08:13.069,179046,15613,19116,84682,126795
2025-04-15 11:08:13.082,178984,15632,19115,84802,126955
2025-04-15 11:08:13.089,178911,15625,19088,84928,127126
2025-04-15 11:08:13.106,178784,15604,19048,84958,127180
2025-04-15 11:08:13.110,178614,15577,19006,84937,127173
2025-04-15 11:08:13.121,178402,15542,18952,84889,127119
2025-04-15 11:08:13.130,178151,15498,18892,84766,127008
2025-04-15 11:08:13.141,177939,15451,18830,84642,126890
2025-04-15 11:08:13.150,177681,15397,18766,84532,126749
2025-04-15 11:08:13.168,177463,15339,18710,84352,126566
2025-04-15 11:08:13.170,177264,15300,18670,84202,126410
2025-04-15 11:08:13.182,177150,15267,18641,84081,126292
2025-04-15 11:08:13.189,177020,15240,18617,84018,126211
2025-04-15 11:08:13.202,176950,15214,18607,83955,126173
2025-04-15 11:08:13.209,176901,15200,18612,83909,126120
2025-04-15 11:08:13.231,176892,15187,18613,83931,126159
2025-04-15 11:08:13.234,176829,15174,18611,83915,126158
2025-04-15 11:08:13.241,176801,15166,18615,83941,126187
2025-04-15 11:08:13.253,176721,15150,18615,83960,126229
2025-04-15 11:08:13.262,176709,15140,18632,83966,126249
2025-04-15 11:08:13.274,176768,15171,18667,83984,126281
2025-04-15 11:08:13.293,176701,15164,18657,84102,126418
2025-04-15 11:08:13.294,176595,15162,18648,84104,126463
2025-04-15 11:08:13.302,176581,15153,18655,84140,126498
2025-04-15 11:08:13.313,176507,15131,18646,84173,126536
2025-04-15 11:08:13.321,176377,15093,18620,84095,126463
2025-04-15 11:08:13.334,176272,15052,18586,83975,126322
2025-04-15 11:08:13.341,176152,15002,18544,83857,126174
2025-04-15 11:08:13.355,175969,14953,18490,83677,125967
2025-04-15 11:08:13.362,175775,14917,18446,83518,125803
2025-04-15 11:08:13.373,175598,14882,18419,83414,125680
2025-04-15 11:08:13.382,175415,14852,18386,83319,125588
2025-04-15 11:08:13.393,175187,14812,18341,83224,125476
2025-04-15 11:08:13.402,175045,14782,18315,83110,125380
2025-04-15 11:08:13.416,174896,14761,18299,83060,125296
2025-04-15 11:08:13.421,174785,14736,18291,82993,125264
2025-04-15 11:08:13.433,174672,14734,18289,82958,125225
2025-04-15 11:08:13.442,174598,14717,18281,82982,125258
2025-04-15 11:08:13.453,174463,14688,18259,82945,125220
2025-04-15 11:08:13.465,174248,14634,18215,82869,125128
2025-04-15 11:08:13.478,173980,14574,18159,82680,124918
2025-04-15 11:08:13.485,173664,14504,18087,82472,124642
2025-04-15 11:08:13.493,173331,14452,18034,82227,124398
2025-04-15 11:08:13.506,173073,14392,17966,82065,124202
2025-04-15 11:08:13.513,172733,14316,17892,81828,123925
2025-04-15 11:08:13.525,172389,14239,17818,81572,123603
2025-04-15 11:08:13.541,172079,14184,17777,81309,123332
2025-04-15 11:08:13.546,171923,14151,17769,81134,123139
2025-04-15 11:08:13.553,171837,14131,17776,81025,123015
2025-04-15 11:08:13.566,171784,14125,17785,80946,122937
2025-04-15 11:08:13.573,171782,14125,17804,80922,122913
2025-04-15 11:08:13.586,171823,14128,17834,80921,122917
2025-04-15 11:08:13.603,171860,14141,17860,80961,122963
2025-04-15 11:08:13.606,171968,14159,17894,80990,123008
2025-04-15 11:08:13.613,172073,14180,17927,81087,123123
2025-04-15 11:08:13.625,172206,14211,17959,81192,123271
2025-04-15 11:08:13.634,172387,14247,18005,81341,123452
2025-04-15 11:08:13.645,172456,14228,18009,81503,123639
2025-04-15 11:08:13.665,172781,14334,18096,81427,123569
2025-04-15 11:08:13.666,172989,14375,18150,81927,124150
2025-04-15 11:08:13.677,173204,14428,18202,82092,124353
2025-04-15 11:08:13.678,173204,14428,18202,82092,124353
2025-04-15 11:08:13.685,173907,14588,18383,82741,125142
2025-04-15 11:08:13.694,174148,14664,18452,83069,125519
2025-04-15 11:08:13.705,174450,14728,18530,83421,125953
2025-04-15 11:08:13.727,174757,14782,18611,83757,126370
2025-04-15 11:08:13.728,175052,14829,18679,84005,126653
2025-04-15 11:08:13.737,175340,14858,18726,84221,126910
2025-04-15 11:08:13.746,175528,14864,18748,84360,127069
2025-04-15 11:08:13.757,175655,14852,18740,84359,127073
2025-04-15 11:08:13.764,175777,14836,18734,84308,127022
2025-04-15 11:08:13.790,175881,14819,18731,84259,126938
2025-04-15 11:08:13.791,175934,14798,18708,84198,126904
2025-04-15 11:08:13.797,175933,14777,18671,84137,126824
2025-04-15 11:08:13.805,175827,14736,18621,84044,126694
2025-04-15 11:08:13.817,175720,14716,18589,83869,126506
2025-04-15 11:08:13.825,175667,14710,18575,83825,126434
2025-04-15 11:08:13.837,175704,14709,18578,83762,126395
2025-04-15 11:08:13.852,175724,14712,18582,83756,126407
2025-04-15 11:08:13.857,175778,14733,18610,83755,126412
2025-04-15 11:08:13.866,175909,14763,18655,83829,126518
2025-04-15 11:08:13.877,176064,14794,18702,83926,126632
2025-04-15 11:08:13.886,176181,14811,18740,84049,126774
2025-04-15 11:08:13.897,176284,14824,18776,84087,126818
2025-04-15 11:08:13.914,176392,14831,18807,84116,126865
2025-04-15 11:08:13.917,176462,14828,18823,84113,126844
2025-04-15 11:08:13.924,176488,14834,18845,84075,126807
2025-04-15 11:08:13.937,176484,14830,18850,84053,126787
2025-04-15 11:08:13.949,176515,14833,18854,84017,126735
2025-04-15 11:08:13.958,176527,14831,18861,83979,126676
2025-04-15 11:08:13.976,176469,14817,18858,83938,126617
2025-04-15 11:08:13.978,176464,14817,18865,83853,126543
2025-04-15 11:08:13.989,176503,14810,18880,83836,126512
2025-04-15 11:08:13.997,176541,14807,18889,83787,126463
2025-04-15 11:08:14.010,176522,14794,18884,83750,126377
2025-04-15 11:08:14.017,176512,14776,18880,83683,126288
2025-04-15 11:08:14.039,176491,14759,18869,83595,126181
2025-04-15 11:08:14.040,176408,14743,18853,83496,126058
2025-04-15 11:08:14.049,176347,14733,18832,83402,125928
2025-04-15 11:08:14.057,176297,14732,18817,83360,125888
2025-04-15 11:08:14.069,176238,14735,18802,83356,125869
2025-04-15 11:08:14.077,176233,14726,18785,83363,125882
2025-04-15 11:08:14.102,176180,14711,18768,83313,125817
2025-04-15 11:08:14.103,176215,14695,18750,83254,125741
2025-04-15 11:08:14.109,176196,14669,18739,83162,125611
2025-04-15 11:08:14.117,176190,14643,18727,83027,125455
2025-04-15 11:08:14.129,176156,14614,18712,82919,125322
2025-04-15 11:08:14.138,176245,14632,18737,82761,125097
2025-04-15 11:08:14.150,176244,14632,18756,82857,125218
2025-04-15 11:08:14.164,176280,14649,18771,82794,125123
2025-04-15 11:08:14.169,176296,14668,18781,82774,125128
2025-04-15 11:08:14.178,176227,14653,18776,82823,125170
2025-04-15 11:08:14.190,176072,14630,18749,82667,124984
2025-04-15 11:08:14.201,175916,14605,18724,82516,124810
2025-04-15 11:08:14.209,175861,14582,18717,82325,124554
2025-04-15 11:08:14.226,175837,14573,18717,82182,124389
2025-04-15 11:08:14.230,175833,14573,18729,82108,124299
2025-04-15 11:08:14.241,175859,14590,18749,82039,124246
2025-04-15 11:08:14.249,175906,14604,18766,82085,124250
2025-04-15 11:08:14.261,175955,14629,18793,82102,124292
2025-04-15 11:08:14.269,176024,14635,18819,82126,124319
2025-04-15 11:08:14.288,176119,14644,18853,82117,124335
2025-04-15 11:08:14.290,176334,14679,18908,82157,124380
2025-04-15 11:08:14.302,176578,14715,18961,82309,124541
2025-04-15 11:08:14.309,176647,14705,18964,82378,124595
2025-04-15 11:08:14.321,176722,14700,18971,82317,124520
2025-04-15 11:08:14.329,176930,14736,19021,82312,124524
2025-04-15 11:08:14.350,177216,14792,19096,82425,124675
2025-04-15 11:08:14.351,177459,14837,19142,82646,124919
2025-04-15 11:08:14.361,177618,14859,19171,82814,125122
2025-04-15 11:08:14.369,177719,14871,19193,82872,125158
2025-04-15 11:08:14.381,177856,14875,19220,82900,125212
2025-04-15 11:08:14.389,178032,14897,19252,82942,125250
2025-04-15 11:08:14.413,178298,14928,19297,83023,125335
2025-04-15 11:08:14.414,178476,14944,19325,83155,125462
2025-04-15 11:08:14.421,178478,14941,19329,83185,125510
2025-04-15 11:08:14.428,178614,14959,19356,83172,125466
2025-04-15 11:08:14.441,178804,14993,19398,83242,125573
2025-04-15 11:08:14.453,178941,15010,19436,83362,125696
2025-04-15 11:08:14.461,179047,15018,19449,83409,125733
2025-04-15 11:08:14.475,179098,15011,19444,83407,125710
2025-04-15 11:08:14.480,179105,14998,19432,83348,125641
2025-04-15 11:08:14.485,179105,14998,19432,83348,125641
2025-04-15 11:08:14.493,179362,15031,19486,83306,125557
2025-04-15 11:08:14.501,179588,15051,19518,83359,125637
2025-04-15 11:08:14.513,179811,15072,19550,83443,125710
2025-04-15 11:08:14.522,180067,15093,19587,83511,125795
2025-04-15 11:08:14.536,180341,15115,19623,83588,125855
2025-04-15 11:08:14.541,180671,15127,19652,83670,125957
2025-04-15 11:08:14.553,180948,15129,19666,83731,125998
2025-04-15 11:08:14.561,181240,15125,19669,83729,125988
2025-04-15 11:08:14.573,181551,15121,19673,83704,125937
2025-04-15 11:08:14.581,181909,15124,19686,83697,125900
2025-04-15 11:08:14.599,182292,15129,19696,83695,125898
2025-04-15 11:08:14.600,182652,15124,19699,83734,125899
2025-04-15 11:08:14.613,182972,15112,19683,83716,125852
2025-04-15 11:08:14.620,183314,15111,19684,83675,125797
2025-04-15 11:08:14.632,183660,15107,19675,83654,125768
2025-04-15 11:08:14.641,183923,15098,19663,83629,125703
2025-04-15 11:08:14.661,184240,15089,19653,83582,125632
2025-04-15 11:08:14.662,184606,15090,19648,83570,125598
2025-04-15 11:08:14.673,184962,15089,19648,83576,125594
2025-04-15 11:08:14.684,185354,15094,19651,83610,125625
2025-04-15 11:08:14.693,185841,15109,19668,83676,125698
2025-04-15 11:08:14.704,186257,15119,19683,83781,125817
2025-04-15 11:08:14.723,186499,15121,19679,83848,125851
2025-04-15 11:08:14.725,186643,15121,19670,83822,125837
2025-04-15 11:08:14.732,186663,15125,19679,83795,125788
2025-04-15 11:08:14.744,186610,15130,19680,83768,125740
2025-04-15 11:08:14.752,186527,15146,19687,83763,125704
2025-04-15 11:08:14.765,186479,15177,19712,83795,125726
2025-04-15 11:08:14.772,186406,15211,19748,83896,125847
2025-04-15 11:08:14.786,186272,15249,19778,84008,125962
2025-04-15 11:08:14.793,186029,15277,19802,84078,126060
2025-04-15 11:08:14.804,185831,15297,19823,84127,126106
2025-04-15 11:08:14.813,185795,15318,19841,84197,126185
2025-04-15 11:08:14.825,185807,15335,19861,84264,126253
2025-04-15 11:08:14.832,185750,15347,19871,84316,126322
2025-04-15 11:08:14.849,185671,15346,19869,84331,126317
2025-04-15 11:08:14.853,185532,15335,19860,84289,126254
2025-04-15 11:08:14.864,185350,15327,19844,84224,126159
2025-04-15 11:08:14.872,185166,15319,19831,84128,126058
2025-04-15 11:08:14.885,184980,15312,19820,84053,125955
2025-04-15 11:08:14.892,184826,15312,19810,83993,125896
2025-04-15 11:08:14.911,184584,15300,19788,83924,125801
2025-04-15 11:08:14.913,184404,15284,19767,83816,125679
2025-04-15 11:08:14.925,184248,15273,19746,83735,125556
2025-04-15 11:08:14.937,184076,15266,19725,83639,125488
2025-04-15 11:08:14.944,183871,15263,19712,83575,125388
2025-04-15 11:08:14.957,183723,15270,19714,83522,125320
2025-04-15 11:08:14.973,183618,15276,19720,83483,125303
2025-04-15 11:08:14.976,183485,15287,19725,83502,125306
2025-04-15 11:08:14.985,183364,15284,19719,83484,125295
2025-04-15 11:08:14.996,183251,15278,19709,83443,125221
2025-04-15 11:08:15.005,183119,15272,19697,83382,125171
2025-04-15 11:08:15.016,182980,15275,19696,83321,125103
2025-04-15 11:08:15.035,182934,15279,19689,83296,125072
2025-04-15 11:08:15.037,182861,15282,19686,83268,125040
2025-04-15 11:08:15.045,182741,15278,19679,83237,125000
2025-04-15 11:08:15.056,182508,15262,19659,83153,124929
2025-04-15 11:08:15.064,182239,15252,19633,83046,124772
2025-04-15 11:08:15.076,182071,15246,19626,82948,124666
2025-04-15 11:08:15.084,182007,15253,19630,82924,124645
2025-04-15 11:08:15.098,181932,15266,19635,82937,124667
2025-04-15 11:08:15.105,181817,15275,19639,82951,124675
2025-04-15 11:08:15.117,181660,15281,19648,82950,124690
2025-04-15 11:08:15.124,181540,15298,19655,82944,124690
2025-04-15 11:08:15.136,181427,15314,19666,82983,124729
2025-04-15 11:08:15.145,181308,15331,19680,83022,124792
2025-04-15 11:08:15.160,181187,15341,19687,83071,124842
2025-04-15 11:08:15.165,180988,15353,19695,83098,124868
2025-04-15 11:08:15.176,180749,15368,19697,83111,124903
2025-04-15 11:08:15.189,180591,15381,19706,83139,124923
2025-04-15 11:08:15.196,180406,15396,19709,83181,125008
2025-04-15 11:08:15.209,180243,15404,19701,83210,125054
2025-04-15 11:08:15.223,180062,15415,19701,83253,125083
2025-04-15 11:08:15.228,179879,15426,19703,83301,125173
2025-04-15 11:08:15.236,179640,15433,19699,83332,125225
2025-04-15 11:08:15.249,179395,15433,19673,83331,125243
2025-04-15 11:08:15.256,179098,15420,19638,83303,125231
2025-04-15 11:08:15.268,178839,15415,19607,83260,125197
2025-04-15 11:08:15.286,178839,15415,19607,83260,125197
2025-04-15 11:08:15.289,178617,15411,19580,83223,125172
2025-04-15 11:08:15.292,178617,15411,19580,83223,125172
2025-04-15 11:08:15.296,178617,15411,19580,83223,125172
2025-04-15 11:08:15.297,178030,15404,19511,83241,125287
2025-04-15 11:08:15.308,177699,15373,19450,83156,125182
2025-04-15 11:08:15.317,177442,15343,19398,83029,125085
2025-04-15 11:08:15.328,177226,15318,19360,82905,124956
2025-04-15 11:08:15.348,177048,15288,19318,82791,124862
2025-04-15 11:08:15.349,176842,15261,19270,82697,124769
2025-04-15 11:08:15.356,176593,15222,19218,82595,124680
2025-04-15 11:08:15.369,176299,15184,19170,82473,124565
2025-04-15 11:08:15.377,176112,15159,19138,82355,124466
2025-04-15 11:08:15.388,175973,15144,19107,82314,124438
2025-04-15 11:08:15.396,175777,15113,19074,82266,124418
2025-04-15 11:08:15.410,175549,15076,19023,82198,124365
2025-04-15 11:08:15.421,175330,15044,18984,82112,124271
2025-04-15 11:08:15.428,175196,15017,18962,82023,124196
2025-04-15 11:08:15.440,175067,14996,18947,81984,124184
2025-04-15 11:08:15.449,174952,14971,18925,81941,124149
2025-04-15 11:08:15.473,174884,14948,18916,81904,124114
2025-04-15 11:08:15.474,174688,14902,18875,81822,124039
2025-04-15 11:08:15.480,174516,14863,18823,81693,123908
2025-04-15 11:08:15.489,174370,14823,18790,81570,123786
2025-04-15 11:08:15.500,174223,14777,18756,81458,123690
2025-04-15 11:08:15.508,174032,14726,18707,81354,123533
2025-04-15 11:08:15.520,173807,14663,18645,81197,123375
2025-04-15 11:08:15.535,173564,14594,18581,80998,123171
2025-04-15 11:08:15.540,173323,14535,18520,80808,122936
2025-04-15 11:08:15.548,173082,14483,18471,80617,122779
2025-04-15 11:08:15.561,172879,14435,18434,80503,122639
2025-04-15 11:08:15.568,172719,14409,18415,80409,122540
2025-04-15 11:08:15.580,172585,14382,18400,80403,122536
2025-04-15 11:08:15.597,172463,14366,18386,80385,122539
2025-04-15 11:08:15.601,172316,14343,18385,80394,122533
2025-04-15 11:08:15.608,172216,14334,18382,80431,122580
2025-04-15 11:08:15.621,172107,14327,18385,80460,122638
2025-04-15 11:08:15.628,172032,14323,18393,80499,122669
2025-04-15 11:08:15.640,171912,14310,18381,80538,122702
2025-04-15 11:08:15.660,171748,14281,18355,80538,122706
2025-04-15 11:08:15.662,171604,14259,18337,80486,122666
2025-04-15 11:08:15.668,171489,14237,18326,80457,122621
2025-04-15 11:08:15.680,171396,14224,18326,80440,122594
2025-04-15 11:08:15.693,171348,14218,18339,80406,122558
2025-04-15 11:08:15.700,171345,14218,18357,80409,122564
2025-04-15 11:08:15.723,171316,14219,18359,80423,122579
2025-04-15 11:08:15.724,171331,14235,18391,80435,122590
2025-04-15 11:08:15.732,171395,14249,18426,80504,122685
2025-04-15 11:08:15.740,171474,14272,18466,80583,122771
2025-04-15 11:08:15.752,171552,14304,18518,80676,122881
2025-04-15 11:08:15.759,171709,14351,18578,80824,123041
2025-04-15 11:08:15.785,171826,14390,18642,80989,123248
2025-04-15 11:08:15.786,171932,14426,18697,81167,123424
2025-04-15 11:08:15.793,171991,14430,18726,81268,123558
2025-04-15 11:08:15.800,172012,14426,18741,81279,123530
2025-04-15 11:08:15.813,172027,14419,18755,81236,123479
2025-04-15 11:08:15.821,171982,14407,18767,81157,123384
2025-04-15 11:08:15.831,171946,14402,18765,81106,123301
2025-04-15 11:08:15.847,171912,14392,18763,81046,123243
2025-04-15 11:08:15.852,171839,14377,18745,80972,123151
2025-04-15 11:08:15.861,171759,14366,18730,80880,123041
2025-04-15 11:08:15.873,171686,14351,18713,80795,122930
2025-04-15 11:08:15.880,171650,14360,18711,80722,122847
2025-04-15 11:08:15.892,171589,14376,18715,80741,122877
2025-04-15 11:08:15.909,171568,14382,18715,80821,122957
2025-04-15 11:08:15.912,171524,14378,18705,80851,122990
2025-04-15 11:08:15.921,171523,14380,18697,80833,122978
2025-04-15 11:08:15.932,171528,14367,18680,80859,123002
2025-04-15 11:08:15.944,171556,14346,18661,80797,122946
2025-04-15 11:08:15.952,171550,14336,18632,80758,122903
2025-04-15 11:08:15.972,171526,14332,18623,80735,122870
2025-04-15 11:08:15.974,171499,14321,18611,80746,122908
2025-04-15 11:08:15.983,171412,14303,18593,80710,122847
2025-04-15 11:08:15.992,171369,14300,18588,80662,122805
2025-04-15 11:08:16.004,171416,14297,18593,80657,122811
2025-04-15 11:08:16.011,171446,14310,18612,80662,122841
2025-04-15 11:08:16.035,171466,14308,18611,80719,122899
2025-04-15 11:08:16.036,171455,14310,18615,80727,122910
2025-04-15 11:08:16.044,171446,14306,18616,80755,122948
2025-04-15 11:08:16.052,171486,14300,18624,80724,122920
2025-04-15 11:08:16.064,171516,14306,18640,80719,122912
2025-04-15 11:08:16.072,171553,14301,18640,80726,122940
2025-04-15 11:08:16.084,171528,14293,18632,80702,122904
2025-04-15 11:08:16.098,171544,14284,18623,80680,122862
2025-04-15 11:08:16.099,171544,14284,18623,80680,122862
2025-04-15 11:08:16.104,171552,14273,18618,80624,122826
2025-04-15 11:08:16.112,171593,14269,18620,80585,122768
2025-04-15 11:08:16.124,171670,14269,18628,80565,122752
2025-04-15 11:08:16.132,171700,14275,18632,80559,122760
2025-04-15 11:08:16.144,171728,14270,18645,80554,122753
2025-04-15 11:08:16.161,171810,14284,18666,80556,122761
2025-04-15 11:08:16.164,171893,14304,18688,80595,122800
2025-04-15 11:08:16.172,171943,14307,18693,80670,122895
2025-04-15 11:08:16.184,171961,14322,18703,80696,122933
2025-04-15 11:08:16.196,171987,14331,18711,80763,123005
2025-04-15 11:08:16.203,171994,14337,18723,80786,123033
2025-04-15 11:08:16.223,172017,14340,18725,80828,123067
2025-04-15 11:08:16.224,171982,14341,18720,80829,123100
2025-04-15 11:08:16.236,171964,14338,18721,80845,123106
2025-04-15 11:08:16.244,171934,14331,18719,80825,123078
2025-04-15 11:08:16.256,171913,14324,18705,80796,123049
2025-04-15 11:08:16.263,171887,14308,18681,80754,122981
2025-04-15 11:08:16.285,171796,14292,18654,80685,122920
2025-04-15 11:08:16.286,171719,14266,18630,80574,122800
2025-04-15 11:08:16.296,171652,14248,18614,80489,122708
2025-04-15 11:08:16.304,171603,14235,18596,80434,122655
2025-04-15 11:08:16.316,171533,14209,18565,80367,122554
2025-04-15 11:08:16.325,171455,14189,18547,80264,122446
2025-04-15 11:08:16.348,171451,14172,18536,80195,122372
2025-04-15 11:08:16.349,171434,14170,18538,80143,122310
2025-04-15 11:08:16.356,171425,14167,18539,80133,122275
2025-04-15 11:08:16.363,171443,14167,18544,80132,122296
2025-04-15 11:08:16.376,171464,14176,18553,80150,122325
2025-04-15 11:08:16.384,171424,14182,18553,80201,122380
2025-04-15 11:08:16.396,171407,14182,18549,80230,122424
2025-04-15 11:08:16.411,171455,14178,18550,80261,122439
2025-04-15 11:08:16.416,171386,14168,18543,80268,122456
2025-04-15 11:08:16.428,171386,14163,18532,80252,122450
2025-04-15 11:08:16.435,171379,14149,18529,80247,122439
2025-04-15 11:08:16.448,171318,14125,18505,80206,122395
2025-04-15 11:08:16.455,171245,14092,18480,80113,122287
2025-04-15 11:08:16.473,171149,14055,18448,80020,122171
2025-04-15 11:08:16.476,171030,14021,18419,79887,122017
2025-04-15 11:08:16.488,170930,13986,18399,79769,121866
2025-04-15 11:08:16.496,170856,13948,18373,79673,121749
2025-04-15 11:08:16.507,170699,13902,18336,79537,121562
2025-04-15 11:08:16.516,170549,13852,18300,79374,121373
2025-04-15 11:08:16.535,170418,13810,18282,79225,121172
2025-04-15 11:08:16.537,170326,13784,18279,79086,121015
2025-04-15 11:08:16.548,170250,13766,18288,79007,120914
2025-04-15 11:08:16.556,170160,13762,18296,78946,120821
2025-04-15 11:08:16.568,170113,13753,18315,78892,120758
2025-04-15 11:08:16.576,170059,13757,18336,78870,120729
2025-04-15 11:08:16.598,169972,13747,18344,78848,120673
2025-04-15 11:08:16.600,169910,13744,18359,78778,120570
2025-04-15 11:08:16.608,169873,13745,18376,78767,120529
2025-04-15 11:08:16.616,169834,13747,18397,78741,120499
2025-04-15 11:08:16.628,169749,13747,18406,78706,120454
2025-04-15 11:08:16.635,169705,13748,18416,78673,120389
2025-04-15 11:08:16.647,169701,13754,18434,78666,120370
2025-04-15 11:08:16.662,169641,13750,18441,78653,120340
2025-04-15 11:08:16.668,169541,13747,18441,78580,120242
2025-04-15 11:08:16.675,169494,13759,18473,78564,120200
2025-04-15 11:08:16.688,169500,13786,18504,78575,120230
2025-04-15 11:08:16.699,169463,13794,18518,78623,120246
2025-04-15 11:08:16.708,169375,13795,18525,78601,120214
2025-04-15 11:08:16.725,169359,13809,18553,78582,120174
2025-04-15 11:08:16.727,169413,13834,18599,78622,120228
2025-04-15 11:08:16.739,169422,13862,18652,78706,120305
2025-04-15 11:08:16.748,169410,13888,18687,78736,120342
2025-04-15 11:08:16.760,169404,13907,18722,78746,120324
2025-04-15 11:08:16.768,169410,13929,18761,78776,120359
2025-04-15 11:08:16.787,169407,13939,18778,78782,120357
2025-04-15 11:08:16.789,169381,13945,18797,78722,120250
2025-04-15 11:08:16.800,169414,13960,18821,78654,120174
2025-04-15 11:08:16.807,169465,13978,18845,78607,120121
2025-04-15 11:08:16.820,169523,13985,18866,78545,120045
2025-04-15 11:08:16.828,169589,13999,18891,78491,119974
2025-04-15 11:08:16.850,169682,14015,18922,78456,119906
2025-04-15 11:08:16.851,169801,14034,18947,78402,119855
2025-04-15 11:08:16.860,169896,14051,18979,78366,119797
2025-04-15 11:08:16.867,169977,14069,19010,78330,119759
2025-04-15 11:08:16.879,170077,14094,19040,78319,119733
2025-04-15 11:08:16.887,170201,14136,19082,78335,119756
2025-04-15 11:08:16.912,170307,14179,19131,78435,119851
2025-04-15 11:08:16.913,170307,14179,19131,78435,119851
2025-04-15 11:08:16.914,170492,14258,19210,78651,120087
2025-04-15 11:08:16.920,170507,14281,19230,78722,120150
2025-04-15 11:08:16.927,170512,14300,19244,78770,120204
2025-04-15 11:08:16.939,170521,14317,19251,78802,120226
2025-04-15 11:08:16.951,170493,14326,19249,78818,120240
2025-04-15 11:08:16.960,170424,14331,19239,78798,120212
2025-04-15 11:08:16.975,170365,14330,19221,78762,120154
2025-04-15 11:08:16.979,170274,14320,19192,78705,120070
2025-04-15 11:08:16.991,170231,14309,19172,78624,119980
2025-04-15 11:08:17.000,170207,14302,19152,78560,119881
2025-04-15 11:08:17.012,170155,14291,19144,78471,119764
2025-04-15 11:08:17.019,170131,14280,19140,78392,119658
2025-04-15 11:08:17.037,170194,14282,19155,78302,119533
2025-04-15 11:08:17.039,170257,14283,19163,78248,119458
2025-04-15 11:08:17.052,170228,14280,19163,78182,119389
2025-04-15 11:08:17.060,170263,14282,19170,78088,119257
2025-04-15 11:08:17.071,170327,14298,19195,78039,119172
2025-04-15 11:08:17.080,170397,14329,19228,78036,119172
2025-04-15 11:08:17.099,170450,14365,19258,78079,119211
2025-04-15 11:08:17.100,170479,14390,19278,78134,119268
2025-04-15 11:08:17.112,170485,14407,19287,78181,119312
2025-04-15 11:08:17.119,170460,14418,19282,78203,119295
2025-04-15 11:08:17.131,170424,14429,19281,78201,119300
2025-04-15 11:08:17.140,170388,14441,19288,78221,119313
2025-04-15 11:08:17.161,170325,14445,19285,78221,119312
2025-04-15 11:08:17.162,170225,14443,19278,78205,119266
2025-04-15 11:08:17.172,170146,14442,19260,78153,119212
2025-04-15 11:08:17.179,170051,14434,19242,78106,119128
2025-04-15 11:08:17.191,169944,14419,19212,78002,119012
2025-04-15 11:08:17.200,169865,14402,19199,77908,118873
2025-04-15 11:08:17.224,169797,14389,19180,77785,118713
2025-04-15 11:08:17.225,169733,14382,19178,77688,118582
2025-04-15 11:08:17.232,169727,14387,19193,77617,118493
2025-04-15 11:08:17.243,169740,14394,19197,77550,118393
2025-04-15 11:08:17.251,169713,14399,19199,77504,118331
2025-04-15 11:08:17.263,169688,14415,19199,77446,118254
2025-04-15 11:08:17.272,169690,14426,19216,77420,118225
2025-04-15 11:08:17.287,169665,14448,19226,77414,118185
2025-04-15 11:08:17.291,169651,14466,19238,77420,118196
2025-04-15 11:08:17.303,169671,14487,19257,77438,118235
2025-04-15 11:08:17.312,169683,14513,19280,77493,118265
2025-04-15 11:08:17.323,169714,14531,19298,77521,118322
2025-04-15 11:08:17.331,169707,14555,19303,77560,118356
2025-04-15 11:08:17.349,169639,14560,19305,77582,118375
2025-04-15 11:08:17.352,169593,14564,19298,77586,118371
2025-04-15 11:08:17.363,169574,14578,19287,77593,118359
2025-04-15 11:08:17.371,169543,14574,19280,77589,118355
2025-04-15 11:08:17.384,169524,14577,19273,77563,118329
2025-04-15 11:08:17.392,169504,14587,19282,77546,118309
2025-04-15 11:08:17.412,169492,14602,19288,77559,118330
2025-04-15 11:08:17.413,169491,14605,19289,77571,118338
2025-04-15 11:08:17.423,169456,14610,19280,77563,118321
2025-04-15 11:08:17.431,169414,14599,19263,77538,118280
2025-04-15 11:08:17.443,169340,14584,19228,77498,118249
2025-04-15 11:08:17.452,169219,14566,19189,77442,118171
2025-04-15 11:08:17.474,169097,14541,19149,77371,118060
2025-04-15 11:08:17.475,169050,14530,19133,77300,117979
2025-04-15 11:08:17.483,169023,14528,19129,77283,117933
2025-04-15 11:08:17.495,168975,14537,19133,77300,117966
2025-04-15 11:08:17.503,168902,14541,19134,77319,117977
2025-04-15 11:08:17.516,168825,14537,19137,77330,118002
2025-04-15 11:08:17.523,168721,14537,19140,77334,118001
2025-04-15 11:08:17.539,168612,14531,19128,77316,117988
2025-04-15 11:08:17.544,168469,14517,19119,77294,117935
2025-04-15 11:08:17.556,168295,14499,19104,77233,117852
2025-04-15 11:08:17.563,168158,14490,19090,77169,117769
2025-04-15 11:08:17.575,168051,14486,19093,77119,117713
2025-04-15 11:08:17.583,167977,14483,19096,77087,117655
2025-04-15 11:08:17.601,167900,14491,19103,77057,117603
2025-04-15 11:08:17.604,167853,14502,19112,77032,117570
2025-04-15 11:08:17.615,167830,14516,19129,77059,117594
2025-04-15 11:08:17.623,167831,14525,19141,77073,117624
2025-04-15 11:08:17.635,167830,14538,19157,77068,117616
2025-04-15 11:08:17.644,167848,14548,19172,77088,117648
2025-04-15 11:08:17.663,167882,14561,19191,77086,117646
2025-04-15 11:08:17.664,167921,14589,19216,77120,117681
2025-04-15 11:08:17.676,168065,14630,19245,77225,117802
2025-04-15 11:08:17.683,168166,14656,19273,77354,117986
2025-04-15 11:08:17.695,168122,14666,19284,77403,118053
2025-04-15 11:08:17.708,168205,14695,19328,77423,118084
2025-04-15 11:08:17.725,168370,14740,19380,77577,118246
2025-04-15 11:08:17.726,168408,14759,19396,77713,118420
2025-04-15 11:08:17.736,168399,14763,19401,77738,118456
2025-04-15 11:08:17.747,168526,14801,19451,77772,118528
2025-04-15 11:08:17.756,168720,14863,19532,77949,118744
2025-04-15 11:08:17.767,168811,14898,19585,78142,118986
2025-04-15 11:08:17.787,168878,14935,19620,78258,119110
2025-04-15 11:08:17.789,168991,14976,19675,78392,119275
2025-04-15 11:08:17.795,169111,15014,19724,78577,119506
2025-04-15 11:08:17.807,169130,15026,19732,78710,119672
2025-04-15 11:08:17.815,169136,15035,19735,78745,119736
2025-04-15 11:08:17.827,169168,15042,19744,78797,119792
2025-04-15 11:08:17.835,169205,15059,19758,78834,119837
2025-04-15 11:08:17.849,169240,15066,19755,78878,119902
2025-04-15 11:08:17.855,169272,15075,19754,78910,119928
2025-04-15 11:08:17.867,169319,15063,19750,78967,120011
2025-04-15 11:08:17.876,169367,15070,19750,78954,120014
2025-04-15 11:08:17.887,169416,15070,19761,78970,120030
2025-04-15 11:08:17.896,169491,15086,19780,78975,120063
2025-04-15 11:08:17.912,169574,15102,19797,79043,120157
2025-04-15 11:08:17.913,169574,15102,19797,79043,120157
2025-04-15 11:08:17.915,169796,15136,19854,79142,120300
2025-04-15 11:08:17.927,169917,15175,19899,79234,120407
2025-04-15 11:08:17.935,170064,15216,19951,79377,120587
2025-04-15 11:08:17.947,170198,15273,20002,79566,120822
2025-04-15 11:08:17.955,170310,15296,20030,79764,121070
2025-04-15 11:08:17.976,170326,15316,20045,79899,121216
2025-04-15 11:08:17.978,170379,15337,20064,80006,121369
2025-04-15 11:08:17.987,170368,15344,20071,80116,121511
2025-04-15 11:08:17.995,170307,15329,20040,80157,121550
2025-04-15 11:08:18.007,170226,15302,20003,80116,121531
2025-04-15 11:08:18.016,170103,15268,19963,80039,121443
2025-04-15 11:08:18.039,169972,15218,19905,79946,121319
2025-04-15 11:08:18.040,169759,15169,19840,79807,121160
2025-04-15 11:08:18.048,169635,15122,19790,79634,120965
2025-04-15 11:08:18.055,169534,15093,19757,79501,120812
2025-04-15 11:08:18.067,169486,15076,19750,79417,120703
2025-04-15 11:08:18.079,169423,15044,19730,79379,120681
2025-04-15 11:08:18.086,169357,15037,19741,79258,120539
2025-04-15 11:08:18.102,169325,15037,19754,79249,120551
2025-04-15 11:08:18.108,169304,15031,19772,79240,120536
2025-04-15 11:08:18.119,169264,15030,19781,79231,120510
2025-04-15 11:08:18.127,169199,15031,19793,79228,120517
2025-04-15 11:08:18.139,169096,15028,19797,79221,120508
2025-04-15 11:08:18.147,168978,15011,19784,79212,120495
2025-04-15 11:08:18.163,168822,14993,19754,79162,120436
2025-04-15 11:08:18.167,168693,14963,19731,79087,120352
2025-04-15 11:08:18.179,168568,14944,19716,79024,120264
2025-04-15 11:08:18.188,168469,14936,19707,78978,120200
2025-04-15 11:08:18.199,168365,14928,19701,78915,120136
2025-04-15 11:08:18.207,168282,14911,19691,78869,120064
2025-04-15 11:08:18.226,168226,14911,19692,78817,119999
2025-04-15 11:08:18.227,168202,14912,19698,78784,119959
2025-04-15 11:08:18.239,168204,14913,19698,78766,119943
2025-04-15 11:08:18.247,168265,14932,19726,78767,119969
2025-04-15 11:08:18.259,168352,14959,19763,78805,119998
2025-04-15 11:08:18.266,168477,14987,19794,78876,120108
2025-04-15 11:08:18.288,168598,15009,19828,78946,120189
2025-04-15 11:08:18.289,168737,15039,19855,79034,120306
2025-04-15 11:08:18.300,168883,15059,19877,79131,120424
2025-04-15 11:08:18.307,169006,15085,19903,79207,120529
2025-04-15 11:08:18.319,169142,15112,19934,79313,120649
2025-04-15 11:08:18.327,169239,15138,19952,79412,120783
2025-04-15 11:08:18.350,169279,15144,19959,79494,120870
2025-04-15 11:08:18.351,169266,15143,19952,79550,120946
2025-04-15 11:08:18.358,169252,15142,19939,79580,120979
2025-04-15 11:08:18.367,169181,15133,19911,79617,121032
2025-04-15 11:08:18.379,169080,15123,19891,79584,120993
2025-04-15 11:08:18.387,168977,15104,19861,79588,121011
2025-04-15 11:08:18.399,168852,15079,19821,79581,120984
2025-04-15 11:08:18.414,168713,15045,19770,79529,120911
2025-04-15 11:08:18.419,168586,15016,19735,79449,120851
2025-04-15 11:08:18.431,168512,14994,19712,79401,120786
2025-04-15 11:08:18.439,168403,14980,19692,79359,120725
2025-04-15 11:08:18.451,168385,14973,19696,79342,120703
2025-04-15 11:08:18.459,168387,14978,19704,79356,120720
2025-04-15 11:08:18.477,168386,14981,19718,79416,120795
2025-04-15 11:08:18.479,168392,14986,19734,79453,120807
2025-04-15 11:08:18.491,168411,14982,19746,79467,120840
2025-04-15 11:08:18.499,168383,14976,19748,79474,120840
2025-04-15 11:08:18.511,168361,14962,19751,79469,120835
2025-04-15 11:08:18.519,168330,14949,19749,79441,120791
2025-04-15 11:08:18.540,168252,14931,19736,79392,120738
2025-04-15 11:08:18.541,168183,14909,19715,79337,120659
2025-04-15 11:08:18.551,168101,14888,19694,79275,120594
2025-04-15 11:08:18.558,167955,14841,19648,79202,120481
2025-04-15 11:08:18.571,167814,14815,19618,79063,120324
2025-04-15 11:08:18.578,167708,14794,19602,78997,120236
2025-04-15 11:08:18.602,167593,14761,19570,78939,120164
2025-04-15 11:08:18.603,167441,14719,19535,78798,119969
2025-04-15 11:08:18.611,167269,14683,19498,78661,119801
2025-04-15 11:08:18.619,167129,14641,19463,78560,119641
2025-04-15 11:08:18.630,166967,14613,19426,78435,119486
2025-04-15 11:08:18.643,166831,14587,19405,78324,119352
2025-04-15 11:08:18.651,166728,14570,19392,78264,119245
2025-04-15 11:08:18.665,166618,14564,19394,78231,119208
2025-04-15 11:08:18.671,166546,14565,19394,78223,119172
2025-04-15 11:08:18.683,166454,14558,19387,78219,119160
2025-04-15 11:08:18.691,166363,14559,19395,78240,119174
2025-04-15 11:08:18.703,166257,14563,19393,78265,119179
2025-04-15 11:08:18.711,166137,14547,19382,78292,119200
2025-04-15 11:08:18.727,166137,14547,19382,78292,119200
2025-04-15 11:08:18.729,165821,14508,19333,78207,119055
2025-04-15 11:08:18.731,165700,14481,19313,78147,118973
2025-04-15 11:08:18.742,165531,14455,19298,78082,118870
2025-04-15 11:08:18.751,165400,14431,19277,77992,118755
2025-04-15 11:08:18.763,165268,14410,19262,77908,118622
2025-04-15 11:08:18.770,165164,14382,19238,77824,118521
2025-04-15 11:08:18.790,165017,14363,19219,77766,118418
2025-04-15 11:08:18.792,164905,14342,19204,77713,118349
2025-04-15 11:08:18.802,164752,14332,19191,77639,118235
2025-04-15 11:08:18.811,164605,14321,19185,77586,118159
2025-04-15 11:08:18.823,164494,14302,19162,77558,118083
2025-04-15 11:08:18.831,164357,14289,19141,77515,118014
2025-04-15 11:08:18.853,164198,14273,19112,77481,117944
2025-04-15 11:08:18.854,164079,14266,19106,77450,117899
2025-04-15 11:08:18.862,163969,14247,19093,77428,117842
2025-04-15 11:08:18.871,163842,14229,19085,77379,117749
2025-04-15 11:08:18.882,163746,14211,19075,77336,117669
2025-04-15 11:08:18.894,163547,14180,19050,77279,117585
2025-04-15 11:08:18.915,163272,14128,19000,77201,117438
2025-04-15 11:08:18.916,162944,14072,18942,77081,117263
2025-04-15 11:08:18.922,162597,14016,18878,76938,117035
2025-04-15 11:08:18.934,162200,13946,18792,76785,116765
2025-04-15 11:08:18.943,161755,13860,18681,76580,116419
2025-04-15 11:08:18.954,161332,13784,18576,76358,116078
2025-04-15 11:08:18.963,160922,13704,18488,76077,115630
2025-04-15 11:08:18.977,160545,13661,18432,75825,115234
2025-04-15 11:08:18.983,160287,13642,18413,75646,114948
2025-04-15 11:08:18.994,160073,13631,18389,75490,114705
2025-04-15 11:08:19.002,159871,13627,18374,75347,114490
2025-04-15 11:08:19.015,159686,13636,18376,75226,114286
2025-04-15 11:08:19.022,159581,13664,18392,75140,114120
2025-04-15 11:08:19.039,159462,13706,18414,75082,114014
2025-04-15 11:08:19.043,159388,13754,18447,75084,113993
2025-04-15 11:08:19.054,159367,13803,18492,75103,113988
2025-04-15 11:08:19.062,159372,13856,18542,75149,113991
2025-04-15 11:08:19.074,159403,13910,18599,75186,114054
2025-04-15 11:08:19.082,159436,13968,18657,75238,114077
2025-04-15 11:08:19.102,159487,14015,18705,75288,114129
2025-04-15 11:08:19.103,159523,14060,18743,75344,114183
2025-04-15 11:08:19.115,159530,14097,18771,75398,114219
2025-04-15 11:08:19.122,159544,14131,18798,75435,114258
2025-04-15 11:08:19.134,159562,14161,18818,75467,114283
2025-04-15 11:08:19.143,159580,14187,18836,75481,114289
2025-04-15 11:08:19.165,159569,14208,18849,75486,114267
2025-04-15 11:08:19.166,159575,14240,18872,75491,114256
2025-04-15 11:08:19.174,159558,14262,18879,75493,114258
2025-04-15 11:08:19.183,159533,14284,18889,75515,114231
2025-04-15 11:08:19.194,159536,14308,18895,75510,114223
2025-04-15 11:08:19.202,159517,14335,18909,75531,114226
2025-04-15 11:08:19.227,159496,14364,18929,75563,114254
2025-04-15 11:08:19.228,159512,14404,18958,75591,114264
2025-04-15 11:08:19.235,159550,14443,18996,75655,114300
2025-04-15 11:08:19.246,159599,14498,19048,75719,114397
2025-04-15 11:08:19.255,159675,14559,19109,75845,114541
2025-04-15 11:08:19.266,159716,14610,19163,75959,114685
2025-04-15 11:08:19.274,159782,14660,19214,76087,114857
2025-04-15 11:08:19.289,159878,14707,19265,76208,114991
2025-04-15 11:08:19.295,159969,14742,19305,76325,115142
2025-04-15 11:08:19.307,160037,14767,19321,76418,115273
2025-04-15 11:08:19.314,160089,14787,19338,76496,115350
2025-04-15 11:08:19.327,160139,14800,19350,76547,115423
2025-04-15 11:08:19.334,160172,14812,19351,76604,115494
2025-04-15 11:08:19.351,160180,14821,19351,76663,115559
2025-04-15 11:08:19.354,160197,14825,19345,76701,115613
2025-04-15 11:08:19.366,160199,14829,19349,76730,115647
2025-04-15 11:08:19.374,160192,14837,19347,76756,115671
2025-04-15 11:08:19.387,160205,14841,19350,76777,115705
2025-04-15 11:08:19.394,160191,14845,19351,76799,115727
2025-04-15 11:08:19.414,160176,14845,19348,76804,115735
2025-04-15 11:08:19.416,160170,14845,19346,76809,115735
2025-04-15 11:08:19.426,160180,14845,19347,76807,115724
2025-04-15 11:08:19.434,160192,14852,19353,76809,115715
2025-04-15 11:08:19.447,160181,14851,19353,76808,115694
2025-04-15 11:08:19.454,160166,14848,19348,76772,115657
2025-04-15 11:08:19.477,160144,14850,19342,76758,115617
2025-04-15 11:08:19.478,160118,14856,19344,76728,115587
2025-04-15 11:08:19.486,160098,14868,19345,76743,115595
2025-04-15 11:08:19.494,160076,14876,19348,76759,115606
2025-04-15 11:08:19.507,160036,14870,19340,76765,115616
2025-04-15 11:08:19.518,159991,14857,19329,76734,115532
2025-04-15 11:08:19.539,159949,14848,19314,76668,115455
2025-04-15 11:08:19.540,159907,14855,19320,76594,115374
2025-04-15 11:08:19.546,159869,14863,19317,76579,115323
2025-04-15 11:08:19.558,159837,14869,19326,76552,115298
2025-04-15 11:08:19.566,159833,14884,19330,76536,115267
2025-04-15 11:08:19.578,159831,14897,19333,76532,115247
2025-04-15 11:08:19.586,159807,14904,19338,76513,115248
2025-04-15 11:08:19.601,159834,14917,19350,76510,115224
2025-04-15 11:08:19.607,159852,14935,19368,76513,115235
2025-04-15 11:08:19.618,159868,14947,19388,76513,115232
2025-04-15 11:08:19.627,159904,14967,19403,76516,115243
2025-04-15 11:08:19.639,159926,14989,19427,76528,115260
2025-04-15 11:08:19.646,159984,15019,19448,76574,115299
2025-04-15 11:08:19.664,160007,15040,19476,76640,115374
2025-04-15 11:08:19.666,160037,15062,19492,76697,115458
2025-04-15 11:08:19.679,160072,15079,19511,76749,115515
2025-04-15 11:08:19.686,160097,15092,19532,76777,115567
2025-04-15 11:08:19.698,160109,15099,19534,76800,115595
2025-04-15 11:08:19.705,160161,15114,19552,76805,115593
2025-04-15 11:08:19.726,160229,15134,19570,76816,115630
2025-04-15 11:08:19.727,160229,15134,19570,76816,115630
2025-04-15 11:08:19.728,160344,15168,19600,76867,115709
2025-04-15 11:08:19.737,160418,15195,19624,76903,115751
2025-04-15 11:08:19.746,160532,15223,19651,76954,115830
2025-04-15 11:08:19.758,160645,15249,19678,77039,115959
2025-04-15 11:08:19.766,160763,15279,19709,77119,116042
2025-04-15 11:08:19.788,160886,15301,19738,77186,116174
2025-04-15 11:08:19.789,161017,15319,19751,77269,116255
2025-04-15 11:08:19.798,161092,15333,19770,77301,116333
2025-04-15 11:08:19.806,161182,15351,19792,77355,116398
2025-04-15 11:08:19.818,161292,15370,19808,77402,116500
2025-04-15 11:08:19.829,161347,15382,19813,77475,116563
2025-04-15 11:08:19.850,161390,15394,19824,77512,116658
2025-04-15 11:08:19.851,161447,15402,19824,77570,116701
2025-04-15 11:08:19.858,161517,15410,19835,77618,116786
2025-04-15 11:08:19.869,161579,15419,19844,77666,116855
2025-04-15 11:08:19.878,161631,15428,19854,77719,116931
2025-04-15 11:08:19.890,161667,15449,19866,77776,117006
2025-04-15 11:08:19.898,161722,15453,19878,77804,117068
2025-04-15 11:08:19.912,161709,15450,19874,77846,117110
2025-04-15 11:08:19.918,161746,15449,19870,77892,117158
2025-04-15 11:08:19.929,161760,15456,19877,77922,117208
2025-04-15 11:08:19.938,161753,15456,19876,77953,117240
2025-04-15 11:08:19.950,161772,15458,19885,77980,117299
2025-04-15 11:08:19.958,161791,15466,19882,78018,117336
2025-04-15 11:08:19.976,161825,15466,19894,78056,117405
2025-04-15 11:08:19.978,161833,15476,19901,78087,117466
2025-04-15 11:08:19.990,161878,15494,19922,78152,117537
2025-04-15 11:08:19.998,161936,15506,19945,78212,117640
2025-04-15 11:08:20.011,162023,15522,19970,78274,117711
2025-04-15 11:08:20.018,162091,15538,19994,78333,117804
2025-04-15 11:08:20.039,162162,15561,20015,78389,117895
2025-04-15 11:08:20.040,162284,15585,20052,78470,117989
2025-04-15 11:08:20.049,162367,15613,20080,78540,118137
2025-04-15 11:08:20.058,162470,15639,20109,78644,118249
2025-04-15 11:08:20.070,162526,15652,20133,78723,118370
2025-04-15 11:08:20.081,162612,15671,20160,78819,118490
2025-04-15 11:08:20.101,162707,15697,20183,78902,118630
2025-04-15 11:08:20.102,162801,15730,20209,78998,118767
2025-04-15 11:08:20.111,162891,15744,20237,79103,118898
2025-04-15 11:08:20.122,162946,15764,20251,79210,119020
2025-04-15 11:08:20.130,162946,15764,20251,79210,119020
2025-04-15 11:08:20.142,162964,15772,20268,79275,119111
2025-04-15 11:08:20.150,162974,15767,20262,79330,119170
2025-04-15 11:08:20.164,162982,15765,20258,79351,119210
2025-04-15 11:08:20.170,162973,15756,20257,79375,119252
2025-04-15 11:08:20.181,162934,15744,20240,79371,119244
2025-04-15 11:08:20.190,162901,15731,20226,79363,119242
2025-04-15 11:08:20.201,162869,15718,20221,79374,119269
2025-04-15 11:08:20.210,162836,15712,20216,79377,119280
2025-04-15 11:08:20.227,162827,15707,20214,79396,119294
2025-04-15 11:08:20.229,162803,15700,20204,79399,119301
2025-04-15 11:08:20.242,162778,15693,20197,79411,119308
2025-04-15 11:08:20.250,162778,15683,20198,79429,119337
2025-04-15 11:08:20.262,162752,15682,20201,79455,119377
2025-04-15 11:08:20.270,162771,15683,20214,79465,119400
2025-04-15 11:08:20.289,162775,15688,20225,79512,119456
2025-04-15 11:08:20.291,162755,15684,20220,79556,119520
2025-04-15 11:08:20.302,162727,15677,20215,79584,119537
2025-04-15 11:08:20.310,162657,15666,20207,79611,119568
2025-04-15 11:08:20.322,162607,15655,20201,79626,119576
2025-04-15 11:08:20.325,162607,15655,20201,79626,119576
2025-04-15 11:08:20.330,162495,15626,20185,79631,119568
2025-04-15 11:08:20.352,162407,15602,20160,79619,119549
2025-04-15 11:08:20.353,162359,15579,20150,79595,119510
2025-04-15 11:08:20.362,162339,15554,20138,79554,119460
2025-04-15 11:08:20.370,162286,15535,20124,79508,119429
2025-04-15 11:08:20.381,162248,15525,20120,79484,119402
2025-04-15 11:08:20.390,162248,15516,20127,79474,119345
2025-04-15 11:08:20.414,162264,15516,20143,79455,119323
2025-04-15 11:08:20.415,162306,15517,20158,79430,119322
2025-04-15 11:08:20.422,162370,15526,20179,79424,119311
2025-04-15 11:08:20.434,162438,15536,20201,79433,119326
2025-04-15 11:08:20.441,162510,15546,20229,79451,119368
2025-04-15 11:08:20.454,162593,15564,20262,79472,119409
2025-04-15 11:08:20.461,162671,15582,20290,79497,119459
2025-04-15 11:08:20.477,162727,15596,20308,79557,119531
2025-04-15 11:08:20.482,162766,15594,20307,79573,119554
2025-04-15 11:08:20.494,162744,15564,20279,79555,119541
2025-04-15 11:08:20.502,162723,15544,20257,79496,119470
2025-04-15 11:08:20.513,162677,15525,20239,79449,119389
2025-04-15 11:08:20.522,162654,15525,20231,79423,119373
2025-04-15 11:08:20.540,162624,15516,20222,79419,119370
2025-04-15 11:08:20.542,162579,15508,20211,79409,119349
2025-04-15 11:08:20.554,162569,15511,20217,79409,119346
2025-04-15 11:08:20.561,162573,15532,20224,79461,119398
2025-04-15 11:08:20.574,162565,15536,20227,79510,119467
2025-04-15 11:08:20.582,162515,15536,20220,79575,119535
2025-04-15 11:08:20.602,162455,15527,20205,79603,119580
2025-04-15 11:08:20.603,162412,15515,20188,79619,119588
2025-04-15 11:08:20.613,162304,15483,20153,79646,119587
2025-04-15 11:08:20.622,162182,15440,20099,79585,119515
2025-04-15 11:08:20.634,162070,15389,20049,79512,119404
2025-04-15 11:08:20.642,162005,15348,20013,79425,119290
2025-04-15 11:08:20.664,161948,15320,19988,79344,119168
2025-04-15 11:08:20.665,161918,15296,19963,79274,119105
2025-04-15 11:08:20.674,161913,15274,19950,79225,119014
2025-04-15 11:08:20.681,161937,15267,19961,79165,118948
2025-04-15 11:08:20.693,161995,15274,19985,79134,118913
2025-04-15 11:08:20.701,162074,15293,20014,79118,118911
2025-04-15 11:08:20.726,162133,15301,20034,79114,118922
2025-04-15 11:08:20.728,162198,15319,20056,79146,118942
2025-04-15 11:08:20.728,162198,15319,20056,79146,118942
2025-04-15 11:08:20.733,162301,15334,20082,79193,119025
2025-04-15 11:08:20.742,162326,15337,20090,79205,119066
2025-04-15 11:08:20.754,162324,15341,20103,79223,119071
2025-04-15 11:08:20.762,162323,15349,20122,79237,119089
2025-04-15 11:08:20.773,162284,15351,20126,79272,119133
2025-04-15 11:08:20.789,162223,15350,20119,79278,119144
2025-04-15 11:08:20.794,162169,15341,20111,79291,119151
2025-04-15 11:08:20.805,162089,15329,20102,79295,119143
2025-04-15 11:08:20.813,162019,15315,20092,79279,119105
2025-04-15 11:08:20.826,161938,15300,20071,79248,119066
2025-04-15 11:08:20.833,161862,15275,20055,79193,118998
2025-04-15 11:08:20.851,161786,15258,20038,79123,118907
2025-04-15 11:08:20.854,161737,15232,20019,79055,118821
2025-04-15 11:08:20.865,161717,15222,20018,78993,118731
2025-04-15 11:08:20.874,161690,15224,20022,78950,118671
2025-04-15 11:08:20.886,161672,15227,20021,78914,118641
2025-04-15 11:08:20.893,161690,15226,20027,78878,118621
2025-04-15 11:08:20.913,161683,15226,20023,78855,118577
2025-04-15 11:08:20.914,161706,15232,20026,78857,118577
2025-04-15 11:08:20.925,161728,15252,20040,78873,118603
2025-04-15 11:08:20.934,161761,15268,20067,78895,118651
2025-04-15 11:08:20.946,161786,15284,20072,78961,118733
2025-04-15 11:08:20.953,161831,15308,20082,79002,118794
2025-04-15 11:08:20.975,161874,15319,20090,79071,118893
2025-04-15 11:08:20.976,161888,15332,20098,79124,118952
2025-04-15 11:08:20.985,161924,15335,20098,79187,119015
2025-04-15 11:08:20.993,161930,15341,20101,79220,119072
2025-04-15 11:08:21.006,161958,15341,20104,79240,119110
2025-04-15 11:08:21.013,161923,15331,20090,79268,119138
2025-04-15 11:08:21.038,161900,15324,20082,79271,119145
2025-04-15 11:08:21.040,161871,15311,20068,79265,119137
2025-04-15 11:08:21.046,161832,15304,20065,79255,119138
2025-04-15 11:08:21.053,161834,15307,20077,79248,119118
2025-04-15 11:08:21.065,161812,15326,20085,79259,119145
2025-04-15 11:08:21.078,161871,15353,20098,79350,119258
2025-04-15 11:08:21.086,161784,15328,20072,79475,119406
2025-04-15 11:08:21.101,161654,15269,20040,79381,119279
2025-04-15 11:08:21.106,161619,15223,20036,79217,119061
2025-04-15 11:08:21.117,161591,15206,20034,79055,118896
2025-04-15 11:08:21.125,161508,15167,20008,78942,118736
2025-04-15 11:08:21.138,161490,15162,19993,78818,118595
2025-04-15 11:08:21.145,161453,15163,19987,78804,118540
2025-04-15 11:08:21.165,161410,15170,19980,78799,118543
2025-04-15 11:08:21.166,161385,15182,19996,78813,118567
2025-04-15 11:08:21.177,161351,15197,20005,78862,118625
2025-04-15 11:08:21.185,161296,15215,20023,78898,118678
2025-04-15 11:08:21.197,161273,15227,20027,78957,118737
2025-04-15 11:08:21.204,161231,15232,20031,78995,118791
2025-04-15 11:08:21.228,161183,15218,20028,79013,118810
2025-04-15 11:08:21.229,161190,15216,20032,78988,118803
2025-04-15 11:08:21.238,161186,15218,20043,78974,118783
2025-04-15 11:08:21.245,161215,15223,20049,78969,118774
2025-04-15 11:08:21.256,161206,15223,20039,78971,118775
2025-04-15 11:08:21.265,161202,15215,20024,78982,118779
2025-04-15 11:08:21.277,161168,15202,19995,78976,118778
2025-04-15 11:08:21.291,161121,15187,19976,78973,118763
2025-04-15 11:08:21.298,161080,15180,19963,78973,118766
2025-04-15 11:08:21.305,161021,15170,19956,78944,118745
2025-04-15 11:08:21.317,160977,15168,19959,78951,118765
2025-04-15 11:08:21.325,160965,15177,19976,78961,118765
2025-04-15 11:08:21.337,160977,15193,20002,78982,118790
2025-04-15 11:08:21.355,161012,15207,20034,79007,118820
2025-04-15 11:08:21.358,161048,15229,20063,79055,118864
2025-04-15 11:08:21.365,161097,15244,20085,79088,118927
2025-04-15 11:08:21.377,161121,15245,20089,79112,118981
2025-04-15 11:08:21.386,161121,15236,20084,79129,118973
2025-04-15 11:08:21.397,161104,15229,20065,79112,118954
2025-04-15 11:08:21.418,161064,15213,20040,79076,118913
2025-04-15 11:08:21.419,161039,15186,20019,79045,118857
2025-04-15 11:08:21.429,160976,15175,20006,79003,118821
2025-04-15 11:08:21.437,160942,15170,20001,78975,118781
2025-04-15 11:08:21.449,160947,15174,20000,78957,118758
2025-04-15 11:08:21.457,160953,15185,20018,78971,118780
2025-04-15 11:08:21.479,160984,15212,20035,79008,118818
2025-04-15 11:08:21.480,161031,15231,20051,79071,118910
2025-04-15 11:08:21.488,161069,15246,20070,79118,118988
2025-04-15 11:08:21.497,161098,15258,20083,79178,119055
2025-04-15 11:08:21.509,161127,15258,20081,79199,119102
2025-04-15 11:08:21.517,161118,15264,20075,79214,119102
2025-04-15 11:08:21.542,161158,15267,20069,79223,119130
2025-04-15 11:08:21.543,161168,15272,20063,79242,119149
2025-04-15 11:08:21.549,161221,15279,20072,79258,119192
2025-04-15 11:08:21.558,161302,15305,20093,79322,119267
2025-04-15 11:08:21.569,161417,15345,20124,79424,119408
2025-04-15 11:08:21.577,161532,15386,20156,79568,119584
2025-04-15 11:08:21.589,161612,15422,20174,79732,119788
2025-04-15 11:08:21.605,161652,15459,20186,79863,119945
2025-04-15 11:08:21.608,161660,15456,20178,80060,120187
2025-04-15 11:08:21.619,161634,15447,20171,80117,120245
2025-04-15 11:08:21.629,161669,15428,20173,80141,120259
2025-04-15 11:08:21.637,161728,15410,20178,80139,120252
2025-04-15 11:08:21.649,161790,15377,20176,80059,120151
2025-04-15 11:08:21.667,161872,15339,20173,79946,120018
2025-04-15 11:08:21.669,161971,15321,20187,79801,119831
2025-04-15 11:08:21.677,162152,15323,20225,79650,119690
2025-04-15 11:08:21.689,162399,15347,20290,79542,119603
2025-04-15 11:08:21.697,162653,15371,20364,79464,119556
2025-04-15 11:08:21.709,162949,15408,20437,79393,119496
2025-04-15 11:08:21.732,163288,15448,20497,79341,119490
2025-04-15 11:08:21.733,163616,15502,20565,79331,119489
2025-04-15 11:08:21.734,163616,15502,20565,79331,119489
2025-04-15 11:08:21.737,164229,15654,20698,79499,119740
2025-04-15 11:08:21.748,164624,15756,20796,79702,120020
2025-04-15 11:08:21.760,165015,15857,20873,80066,120540
2025-04-15 11:08:21.769,165249,15937,20923,80368,120919
2025-04-15 11:08:21.780,165290,15997,20951,80635,121230
2025-04-15 11:08:21.794,165360,16073,20986,80885,121540
2025-04-15 11:08:21.801,165460,16153,21040,81211,121932
2025-04-15 11:08:21.809,165618,16226,21090,81530,122309
2025-04-15 11:08:21.821,165433,16200,20987,81821,122631
2025-04-15 11:08:21.829,165437,16170,21001,81768,122518
2025-04-15 11:08:21.840,165501,16178,21005,81760,122556
2025-04-15 11:08:21.857,165476,16129,20977,81788,122586
2025-04-15 11:08:21.861,165489,16096,20976,81603,122364
2025-04-15 11:08:21.869,165558,16077,20993,81498,122259
2025-04-15 11:08:21.881,165612,16063,21012,81364,122105
2025-04-15 11:08:21.888,165768,16088,21070,81261,122006
2025-04-15 11:08:21.901,165965,16118,21120,81303,122067
2025-04-15 11:08:21.919,166127,16139,21157,81380,122148
2025-04-15 11:08:21.921,166261,16155,21198,81413,122172
2025-04-15 11:08:21.929,166403,16196,21247,81436,122201
2025-04-15 11:08:21.941,166521,16218,21279,81574,122367
2025-04-15 11:08:21.949,166781,16263,21353,81639,122408
2025-04-15 11:08:21.961,167008,16323,21429,81766,122572
2025-04-15 11:08:21.969,167073,16327,21448,81958,122787
2025-04-15 11:08:21.983,167083,16334,21456,81928,122724
2025-04-15 11:08:21.994,167040,16339,21444,81897,122691
2025-04-15 11:08:22.001,166956,16325,21409,81859,122652
2025-04-15 11:08:22.013,166866,16330,21369,81820,122611
2025-04-15 11:08:22.020,166753,16315,21306,81826,122617
2025-04-15 11:08:22.045,166474,16271,21207,81753,122523
2025-04-15 11:08:22.046,166248,16260,21120,81632,122404
2025-04-15 11:08:22.053,166218,16258,21085,81639,122429
2025-04-15 11:08:22.060,166302,16295,21091,81692,122524
2025-04-15 11:08:22.073,166353,16325,21101,81842,122727
2025-04-15 11:08:22.081,166437,16341,21111,81952,122860
2025-04-15 11:08:22.092,166492,16354,21114,82063,123004
2025-04-15 11:08:22.109,166501,16350,21125,82142,123100
2025-04-15 11:08:22.113,166550,16353,21146,82186,123137
2025-04-15 11:08:22.121,166596,16361,21189,82204,123169
2025-04-15 11:08:22.133,166635,16371,21213,82268,123219
2025-04-15 11:08:22.141,166703,16384,21226,82310,123286
2025-04-15 11:08:22.152,166640,16382,21208,82375,123330
2025-04-15 11:08:22.170,166504,16348,21152,82396,123375
2025-04-15 11:08:22.173,166427,16371,21135,82284,123268
2025-04-15 11:08:22.180,166319,16346,21087,82447,123405
2025-04-15 11:08:22.193,166238,16330,21046,82384,123369
2025-04-15 11:08:22.201,166203,16322,21025,82398,123379
2025-04-15 11:08:22.212,166187,16308,21001,82425,123431
2025-04-15 11:08:22.233,166213,16305,21003,82421,123431
2025-04-15 11:08:22.234,166250,16297,21002,82451,123470
2025-04-15 11:08:22.244,166311,16303,21011,82469,123504
2025-04-15 11:08:22.253,166385,16296,21024,82495,123548
2025-04-15 11:08:22.265,166491,16308,21045,82518,123556
2025-04-15 11:08:22.272,166612,16321,21087,82560,123625
2025-04-15 11:08:22.296,166726,16339,21124,82631,123704
2025-04-15 11:08:22.297,166784,16357,21150,82678,123752
2025-04-15 11:08:22.305,166873,16372,21181,82769,123870
2025-04-15 11:08:22.313,166902,16375,21193,82821,123940
2025-04-15 11:08:22.324,166857,16370,21189,82851,123970
2025-04-15 11:08:22.333,166815,16359,21182,82854,123968
2025-04-15 11:08:22.344,166784,16352,21174,82837,123943
2025-04-15 11:08:22.358,166729,16342,21161,82817,123917
2025-04-15 11:08:22.365,166662,16331,21148,82788,123916
2025-04-15 11:08:22.372,166595,16319,21126,82792,123899
2025-04-15 11:08:22.384,166574,16304,21115,82765,123861
2025-04-15 11:08:22.393,166503,16285,21109,82721,123827
2025-04-15 11:08:22.404,166500,16290,21123,82679,123773
2025-04-15 11:08:22.420,166537,16290,21136,82677,123780
2025-04-15 11:08:22.425,166527,16284,21135,82682,123784
2025-04-15 11:08:22.432,166499,16278,21124,82652,123751
2025-04-15 11:08:22.445,166468,16267,21109,82642,123729
2025-04-15 11:08:22.453,166413,16246,21089,82602,123676
2025-04-15 11:08:22.465,166352,16233,21070,82559,123628
2025-04-15 11:08:22.482,166324,16224,21046,82513,123594
2025-04-15 11:08:22.485,166308,16212,21026,82484,123554
2025-04-15 11:08:22.497,166293,16221,21028,82451,123530
2025-04-15 11:08:22.505,166333,16225,21028,82481,123557
2025-04-15 11:08:22.517,166347,16224,21024,82520,123628
2025-04-15 11:08:22.525,166376,16232,21032,82536,123647
2025-04-15 11:08:22.545,166484,16245,21049,82608,123730
2025-04-15 11:08:22.546,166484,16245,21049,82608,123730
2025-04-15 11:08:22.547,166628,16258,21075,82694,123827
2025-04-15 11:08:22.556,166720,16267,21098,82738,123879
2025-04-15 11:08:22.564,166787,16268,21113,82778,123922
2025-04-15 11:08:22.577,166882,16285,21131,82805,123950
2025-04-15 11:08:22.584,166965,16295,21150,82852,124032
2025-04-15 11:08:22.607,167029,16306,21166,82903,124078
2025-04-15 11:08:22.609,167041,16309,21168,82951,124133
2025-04-15 11:08:22.616,167079,16310,21166,82993,124191
2025-04-15 11:08:22.624,167064,16304,21164,83015,124194
2025-04-15 11:08:22.636,167009,16287,21142,82989,124175
2025-04-15 11:08:22.643,166984,16282,21134,82948,124122
2025-04-15 11:08:22.656,166973,16279,21127,82948,124128
2025-04-15 11:08:22.669,166926,16270,21109,82963,124132
2025-04-15 11:08:22.676,166870,16257,21095,82943,124131
2025-04-15 11:08:22.684,166838,16251,21089,82934,124104
2025-04-15 11:08:22.696,166837,16243,21086,82929,124094
2025-04-15 11:08:22.704,166779,16231,21078,82909,124081
2025-04-15 11:08:22.716,166806,16236,21082,82901,124087
2025-04-15 11:08:22.732,166841,16245,21087,82924,124099
2025-04-15 11:08:22.735,166867,16252,21088,82951,124126
2025-04-15 11:08:22.748,166884,16245,21080,82970,124150
2025-04-15 11:08:22.757,166863,16238,21071,82977,124182
2025-04-15 11:08:22.768,166912,16231,21073,82992,124164
2025-04-15 11:08:22.777,166924,16223,21072,82980,124155
2025-04-15 11:08:22.795,166937,16217,21058,82955,124127
2025-04-15 11:08:22.796,166893,16203,21041,82934,124121
2025-04-15 11:08:22.809,166903,16193,21024,82921,124104
2025-04-15 11:08:22.816,166870,16180,21013,82904,124068
2025-04-15 11:08:22.828,166860,16176,21010,82868,124050
2025-04-15 11:08:22.836,166881,16173,21003,82878,124042
2025-04-15 11:08:22.858,166906,16168,21007,82907,124060
2025-04-15 11:08:22.859,166908,16164,21009,82917,124089
2025-04-15 11:08:22.868,166904,16158,21002,82923,124117
2025-04-15 11:08:22.876,166920,16158,20992,82921,124068
2025-04-15 11:08:22.888,166962,16157,20987,82932,124097
2025-04-15 11:08:22.895,166972,16151,20985,82953,124119
2025-04-15 11:08:22.920,166967,16140,20977,82943,124115
2025-04-15 11:08:22.921,166973,16130,20976,82944,124113
2025-04-15 11:08:22.929,167017,16130,20974,82937,124110
2025-04-15 11:08:22.936,167007,16125,20974,82939,124092
2025-04-15 11:08:22.948,166991,16108,20949,82924,124072
2025-04-15 11:08:22.956,166966,16099,20931,82905,124065
2025-04-15 11:08:22.968,166997,16088,20916,82890,124069
2025-04-15 11:08:22.982,167014,16088,20920,82883,124048
2025-04-15 11:08:22.988,167075,16088,20918,82900,124073
2025-04-15 11:08:23.000,167131,16089,20920,82927,124097
2025-04-15 11:08:23.009,167209,16085,20918,82965,124144
2025-04-15 11:08:23.020,167269,16094,20930,82995,124170
2025-04-15 11:08:23.028,167331,16087,20921,83043,124232
2025-04-15 11:08:23.045,167373,16083,20918,83055,124240
2025-04-15 11:08:23.048,167405,16075,20908,83053,124262
2025-04-15 11:08:23.060,167435,16056,20905,83020,124241
2025-04-15 11:08:23.067,167473,16046,20898,83000,124196
2025-04-15 11:08:23.080,167544,16044,20896,82981,124186
2025-04-15 11:08:23.088,167568,16038,20900,82983,124202
2025-04-15 11:08:23.107,167635,16053,20912,83003,124241
2025-04-15 11:08:23.109,167674,16048,20918,83051,124306
2025-04-15 11:08:23.120,167691,16049,20924,83073,124316
2025-04-15 11:08:23.127,167722,16045,20925,83082,124319
2025-04-15 11:08:23.141,167768,16042,20927,83093,124340
2025-04-15 11:08:23.148,167781,16035,20930,83080,124315
2025-04-15 11:08:23.169,167859,16047,20952,83083,124323
2025-04-15 11:08:23.170,167981,16055,20971,83125,124388
2025-04-15 11:08:23.180,168076,16060,20979,83159,124426
2025-04-15 11:08:23.187,168134,16067,20996,83197,124468
2025-04-15 11:08:23.200,168195,16059,20993,83224,124501
2025-04-15 11:08:23.208,168255,16052,20991,83201,124478
2025-04-15 11:08:23.232,168303,16046,20991,83161,124432
2025-04-15 11:08:23.233,168328,16045,20983,83146,124436
2025-04-15 11:08:23.240,168356,16049,20983,83155,124440
2025-04-15 11:08:23.252,168409,16055,20990,83180,124485
2025-04-15 11:08:23.260,168459,16055,20984,83228,124541
2025-04-15 11:08:23.272,168454,16050,20977,83266,124573
2025-04-15 11:08:23.281,168468,16059,20988,83249,124566
2025-04-15 11:08:23.295,168572,16085,21014,83336,124651
2025-04-15 11:08:23.300,168704,16069,21020,83422,124760
2025-04-15 11:08:23.312,168656,16052,21009,83316,124653
2025-04-15 11:08:23.320,168656,16052,21007,83282,124613
2025-04-15 11:08:23.332,168800,16059,21031,83320,124655
2025-04-15 11:08:23.343,168839,16057,21049,83275,124615
2025-04-15 11:08:23.358,168839,16057,21049,83275,124615
2025-04-15 11:08:23.359,168931,16110,21083,83421,124799
2025-04-15 11:08:23.360,169010,16105,21089,83544,124913
2025-04-15 11:08:23.371,168882,16082,21053,83496,124865
2025-04-15 11:08:23.380,168849,16078,21047,83444,124798
2025-04-15 11:08:23.392,168866,16068,21037,83424,124787
2025-04-15 11:08:23.400,168817,16049,21000,83388,124727
2025-04-15 11:08:23.423,168725,16025,20963,83311,124660
2025-04-15 11:08:23.424,168679,16010,20952,83245,124592
2025-04-15 11:08:23.432,168643,16004,20950,83227,124568
2025-04-15 11:08:23.439,168645,15995,20956,83196,124527
2025-04-15 11:08:23.452,168664,15994,20959,83166,124508
2025-04-15 11:08:23.460,168638,15973,20951,83102,124444
2025-04-15 11:08:23.472,168585,15967,20934,83037,124363
2025-04-15 11:08:23.493,168584,15954,20930,82993,124324
2025-04-15 11:08:23.494,168608,15954,20933,82962,124283
2025-04-15 11:08:23.504,168594,15965,20942,82976,124299
2025-04-15 11:08:23.512,168629,15975,20957,83000,124317
2025-04-15 11:08:23.524,168630,15985,20965,83018,124376
2025-04-15 11:08:23.532,168594,15992,20963,83058,124394
2025-04-15 11:08:23.560,168575,16006,20967,83080,124432
2025-04-15 11:08:23.561,168548,16009,20972,83114,124460
2025-04-15 11:08:23.564,168531,16023,20981,83159,124498
2025-04-15 11:08:23.572,168511,16033,20988,83222,124578
2025-04-15 11:08:23.584,168489,16039,20984,83270,124623
2025-04-15 11:08:23.591,168489,16056,20995,83302,124652
2025-04-15 11:08:23.604,168464,16072,21003,83376,124747
2025-04-15 11:08:23.623,168438,16085,21009,83441,124830
2025-04-15 11:08:23.625,168444,16100,21014,83521,124905
2025-04-15 11:08:23.632,168455,16116,21022,83594,124973
2025-04-15 11:08:23.643,168417,16110,21006,83661,125047
2025-04-15 11:08:23.652,168365,16101,20982,83629,125022
2025-04-15 11:08:23.663,168330,16106,20978,83647,125033
2025-04-15 11:08:23.686,168352,16111,20995,83675,125074
2025-04-15 11:08:23.687,168432,16136,21032,83731,125127
2025-04-15 11:08:23.691,168568,16172,21079,83833,125249
2025-04-15 11:08:23.703,168630,16192,21107,83976,125416
2025-04-15 11:08:23.712,168626,16179,21091,84041,125493
2025-04-15 11:08:23.724,168597,16172,21077,83993,125408
2025-04-15 11:08:23.735,168591,16171,21072,83962,125388
2025-04-15 11:08:23.750,168665,16173,21095,83933,125358
2025-04-15 11:08:23.756,168737,16186,21120,83961,125396
2025-04-15 11:08:23.763,168814,16204,21145,84018,125447
2025-04-15 11:08:23.775,168842,16207,21145,84057,125492
2025-04-15 11:08:23.784,168824,16203,21134,84051,125485
2025-04-15 11:08:23.796,168777,16190,21125,84030,125442
2025-04-15 11:08:23.814,168767,16194,21110,83976,125401
2025-04-15 11:08:23.816,168768,16198,21098,84007,125406
2025-04-15 11:08:23.824,168730,16188,21064,84008,125424
2025-04-15 11:08:23.836,168641,16178,21035,83979,125390
2025-04-15 11:08:23.844,168594,16169,21017,83958,125363
2025-04-15 11:08:23.856,168558,16173,21014,83936,125324
2025-04-15 11:08:23.876,168564,16195,21004,83944,125371
2025-04-15 11:08:23.878,168602,16221,21000,84064,125504
2025-04-15 11:08:23.884,168587,16228,20977,84175,125636
2025-04-15 11:08:23.896,168581,16221,20941,84234,125707
2025-04-15 11:08:23.903,168582,16213,20934,84248,125716
2025-04-15 11:08:23.916,168605,16197,20928,84267,125750
2025-04-15 11:08:23.923,168744,16210,20969,84200,125654
2025-04-15 11:08:23.941,168887,16211,20980,84308,125796
2025-04-15 11:08:23.948,168921,16196,20965,84336,125828
2025-04-15 11:08:23.956,168864,16179,20934,84293,125767
2025-04-15 11:08:23.963,168820,16142,20911,84257,125722
2025-04-15 11:08:23.976,168868,16152,20907,84131,125608
2025-04-15 11:08:23.988,168741,16119,20862,84167,125633
2025-04-15 11:08:24.003,168733,16123,20842,84032,125491
2025-04-15 11:08:24.008,168734,16111,20814,84079,125536
2025-04-15 11:08:24.015,168683,16094,20780,84046,125476
2025-04-15 11:08:24.027,168727,16090,20778,83980,125409
2025-04-15 11:08:24.036,168767,16081,20752,83979,125426
2025-04-15 11:08:24.047,168764,16072,20702,83955,125413
2025-04-15 11:08:24.067,168760,16052,20657,83950,125417
2025-04-15 11:08:24.068,168704,16035,20620,83909,125365
2025-04-15 11:08:24.076,168762,16023,20611,83861,125310
2025-04-15 11:08:24.087,168894,16005,20612,83822,125289
2025-04-15 11:08:24.096,168966,15998,20611,83804,125255
2025-04-15 11:08:24.107,169089,15988,20621,83801,125244
2025-04-15 11:08:24.116,169216,15987,20636,83777,125260
2025-04-15 11:08:24.131,169333,16000,20657,83787,125268
2025-04-15 11:08:24.135,169482,16005,20683,83869,125355
2025-04-15 11:08:24.148,169615,16020,20710,83934,125410
2025-04-15 11:08:24.151,169615,16020,20710,83934,125410
2025-04-15 11:08:24.155,169970,16062,20772,84093,125630
2025-04-15 11:08:24.167,170151,16076,20801,84184,125723
2025-04-15 11:08:24.176,170303,16088,20804,84255,125787
2025-04-15 11:08:24.193,170450,16110,20819,84343,125885
2025-04-15 11:08:24.196,170647,16136,20842,84446,126028
2025-04-15 11:08:24.207,170901,16157,20864,84582,126191
2025-04-15 11:08:24.219,171171,16184,20892,84739,126356
2025-04-15 11:08:24.227,171456,16215,20923,84874,126517
2025-04-15 11:08:24.239,171822,16252,20966,85052,126716
2025-04-15 11:08:24.255,172255,16294,21024,85244,126938
2025-04-15 11:08:24.260,172625,16316,21058,85444,127174
2025-04-15 11:08:24.267,172937,16350,21096,85584,127346
2025-04-15 11:08:24.279,173286,16397,21145,85793,127573
2025-04-15 11:08:24.288,173681,16435,21190,86040,127904
2025-04-15 11:08:24.299,174022,16478,21235,86264,128183
2025-04-15 11:08:24.318,174397,16526,21278,86511,128463
2025-04-15 11:08:24.319,174764,16581,21309,86786,128776
2025-04-15 11:08:24.327,175115,16631,21331,87066,129140
2025-04-15 11:08:24.339,175453,16662,21354,87328,129434
2025-04-15 11:08:24.347,175737,16687,21376,87494,129685
2025-04-15 11:08:24.359,176067,16698,21407,87646,129857
2025-04-15 11:08:24.381,176377,16722,21439,87771,129992
2025-04-15 11:08:24.382,176662,16749,21467,87901,130149
2025-04-15 11:08:24.388,176898,16767,21472,88048,130335
2025-04-15 11:08:24.399,177094,16794,21469,88208,130527
2025-04-15 11:08:24.408,177279,16807,21471,88350,130713
2025-04-15 11:08:24.420,177481,16818,21485,88465,130850
2025-04-15 11:08:24.427,177737,16830,21519,88548,130970
2025-04-15 11:08:24.444,177967,16827,21530,88655,131121
2025-04-15 11:08:24.447,178070,16825,21517,88665,131107
2025-04-15 11:08:24.460,178106,16811,21489,88660,131108
2025-04-15 11:08:24.472,178081,16773,21447,88605,131035
2025-04-15 11:08:24.479,177967,16724,21395,88465,130871
2025-04-15 11:08:24.491,177949,16732,21407,88295,130686
2025-04-15 11:08:24.507,178222,16735,21465,88366,130777
2025-04-15 11:08:24.512,178416,16711,21486,88332,130726
2025-04-15 11:08:24.519,178299,16692,21451,88236,130637
2025-04-15 11:08:24.531,178181,16655,21400,88167,130549
2025-04-15 11:08:24.540,178050,16601,21355,87983,130313
2025-04-15 11:08:24.551,177887,16583,21337,87735,130022
2025-04-15 11:08:24.569,177963,16604,21369,87672,129977
2025-04-15 11:08:24.572,178126,16632,21410,87769,130090
2025-04-15 11:08:24.579,178181,16621,21399,87896,130239
2025-04-15 11:08:24.591,178018,16599,21358,87854,130160
2025-04-15 11:08:24.600,177926,16585,21338,87731,130033
2025-04-15 11:08:24.611,177947,16581,21332,87681,129988
2025-04-15 11:08:24.631,177902,16552,21309,87644,129936
2025-04-15 11:08:24.633,177854,16526,21291,87519,129782
2025-04-15 11:08:24.639,177802,16520,21285,87419,129685
2025-04-15 11:08:24.651,177762,16504,21267,87383,129633
2025-04-15 11:08:24.659,177664,16474,21232,87295,129542
2025-04-15 11:08:24.671,177486,16452,21187,87169,129396
2025-04-15 11:08:24.679,177392,16430,21162,87064,129251
2025-04-15 11:08:24.695,177310,16406,21132,86957,129165
2025-04-15 11:08:24.703,177217,16374,21101,86841,129019
2025-04-15 11:08:24.711,177131,16347,21076,86717,128863
2025-04-15 11:08:24.723,177130,16351,21089,86607,128763
2025-04-15 11:08:24.730,177246,16372,21127,86631,128798
2025-04-15 11:08:24.743,177350,16400,21171,86743,128940
2025-04-15 11:08:24.757,177470,16425,21211,86863,129081
2025-04-15 11:08:24.763,177561,16448,21242,86941,129191
2025-04-15 11:08:24.771,177607,16456,21257,87016,129240
2025-04-15 11:08:24.783,177620,16457,21251,87054,129305
2025-04-15 11:08:24.791,177605,16447,21242,87031,129266
2025-04-15 11:08:24.803,177576,16434,21233,86969,129209
2025-04-15 11:08:24.819,177580,16437,21240,86929,129172
2025-04-15 11:08:24.823,177673,16450,21261,86937,129195
2025-04-15 11:08:24.831,177733,16449,21273,86977,129232
2025-04-15 11:08:24.843,177778,16454,21282,86997,129224
2025-04-15 11:08:24.851,177702,16425,21247,86963,129208
2025-04-15 11:08:24.863,177573,16406,21214,86831,129050
2025-04-15 11:08:24.882,177449,16388,21161,86746,128928
2025-04-15 11:08:24.883,177356,16375,21137,86644,128810
2025-04-15 11:08:24.891,177247,16358,21108,86562,128713
2025-04-15 11:08:24.902,177145,16353,21089,86493,128614
2025-04-15 11:08:24.911,177079,16342,21062,86466,128609
2025-04-15 11:08:24.923,176939,16310,21016,86396,128501
2025-04-15 11:08:24.931,176761,16288,20982,86256,128355
2025-04-15 11:08:24.945,176750,16277,20962,86192,128279
2025-04-15 11:08:24.955,176734,16263,20952,86171,128233
2025-04-15 11:08:24.959,176734,16263,20952,86171,128233
2025-04-15 11:08:24.963,176584,16258,20942,86136,128185
2025-04-15 11:08:24.975,176536,16246,20930,86133,128178
2025-04-15 11:08:24.982,176511,16234,20918,86073,128116
2025-04-15 11:08:24.994,176465,16240,20916,86041,128083
2025-04-15 11:08:25.009,176451,16254,20925,86074,128124
2025-04-15 11:08:25.015,176453,16275,20946,86169,128249
2025-04-15 11:08:25.023,176451,16284,20958,86264,128342
2025-04-15 11:08:25.035,176405,16287,20946,86314,128410
2025-04-15 11:08:25.043,176266,16268,20908,86319,128392
2025-04-15 11:08:25.054,176133,16254,20867,86260,128307
2025-04-15 11:08:25.071,176038,16247,20851,86191,128229
2025-04-15 11:08:25.075,176045,16260,20867,86199,128263
2025-04-15 11:08:25.082,176004,16250,20851,86262,128322
2025-04-15 11:08:25.094,175835,16233,20811,86202,128238
2025-04-15 11:08:25.103,175684,16227,20775,86149,128188
2025-04-15 11:08:25.114,175529,16201,20738,86116,128120
2025-04-15 11:08:25.133,175404,16190,20703,86019,128018
2025-04-15 11:08:25.135,175216,16162,20673,85939,127926
2025-04-15 11:08:25.143,175081,16132,20633,85822,127798
2025-04-15 11:08:25.154,174910,16116,20593,85719,127657
2025-04-15 11:08:25.164,174759,16092,20557,85608,127547
2025-04-15 11:08:25.175,174592,16068,20506,85494,127403
2025-04-15 11:08:25.182,174481,16060,20494,85391,127288
2025-04-15 11:08:25.197,174433,16058,20484,85371,127266
2025-04-15 11:08:25.207,174391,16043,20479,85346,127223
2025-04-15 11:08:25.215,174338,16032,20471,85296,127151
2025-04-15 11:08:25.227,174285,16023,20456,85252,127130
2025-04-15 11:08:25.235,174233,16008,20438,85216,127063
2025-04-15 11:08:25.261,174136,15991,20409,85141,126995
2025-04-15 11:08:25.262,174100,15985,20387,85078,126911
2025-04-15 11:08:25.266,174050,15973,20369,85053,126873
2025-04-15 11:08:25.275,174044,15976,20372,85030,126849
2025-04-15 11:08:25.287,174056,15974,20365,85048,126861
2025-04-15 11:08:25.294,174053,15978,20362,85050,126874
2025-04-15 11:08:25.307,174085,15980,20365,85089,126922
2025-04-15 11:08:25.323,174131,15985,20377,85088,126928
2025-04-15 11:08:25.327,174193,15998,20392,85147,126998
2025-04-15 11:08:25.334,174294,16013,20412,85190,127052
2025-04-15 11:08:25.346,174448,16043,20445,85293,127171
2025-04-15 11:08:25.355,174579,16049,20459,85413,127321
2025-04-15 11:08:25.366,174609,16047,20453,85430,127336
2025-04-15 11:08:25.386,174676,16054,20466,85448,127355
2025-04-15 11:08:25.387,174804,16058,20488,85493,127426
2025-04-15 11:08:25.394,174896,16068,20502,85519,127438
