Timestamp,PPG1,PPG2,PPG3,PPG4,PPG5
2025-04-15 10:28:27.909,87,81,63,38,0
2025-04-15 10:28:28.191,94,93,65,71,12
2025-04-15 10:28:28.535,118,110,81,79,47
2025-04-15 10:28:28.537,136,96,76,86,33
2025-04-15 10:28:28.538,158,138,106,91,50
2025-04-15 10:28:28.540,154,124,137,89,87
2025-04-15 10:28:28.541,166,157,126,132,70
2025-04-15 10:28:28.543,177,176,169,109,88
2025-04-15 10:28:28.545,191,187,152,103,107
2025-04-15 10:28:28.546,200,203,149,172,106
2025-04-15 10:28:28.548,204,206,190,142,123
2025-04-15 10:28:28.550,188,199,174,175,126
2025-04-15 10:28:28.551,187,197,194,194,138
2025-04-15 10:28:28.553,174,196,195,216,149
2025-04-15 10:28:28.555,177,181,199,192,196
2025-04-15 10:28:28.557,169,197,186,222,195
2025-04-15 10:28:28.558,171,191,188,194,205
2025-04-15 10:28:28.560,156,190,180,217,208
2025-04-15 10:28:28.563,154,176,170,193,167
2025-04-15 10:28:28.566,159,148,155,222,216
2025-04-15 10:28:28.568,127,142,148,188,176
2025-04-15 10:28:28.569,127,142,148,188,176
2025-04-15 10:28:28.571,115,133,147,188,195
2025-04-15 10:28:28.573,108,140,136,175,154
2025-04-15 10:28:28.574,104,129,148,180,167
2025-04-15 10:28:28.575,90,119,152,158,168
2025-04-15 10:28:28.577,75,93,105,156,186
2025-04-15 10:28:28.578,29,65,102,128,162
2025-04-15 10:28:28.580,14,54,73,127,150
2025-04-15 10:28:28.596,13,38,67,107,138
2025-04-15 10:28:28.597,7,15,54,107,136
2025-04-15 10:28:28.599,0,8,24,121,119
2025-04-15 10:28:28.600,0,10,15,88,114
2025-04-15 10:28:28.601,0,12,37,52,107
2025-04-15 10:28:28.601,0,0,1,64,106
2025-04-15 10:28:28.602,0,0,18,63,105
2025-04-15 10:28:28.603,0,0,11,61,80
2025-04-15 10:28:28.604,0,0,5,47,92
2025-04-15 10:28:28.605,0,0,9,45,48
2025-04-15 10:28:28.606,0,0,0,4,74
2025-04-15 10:28:28.606,0,0,0,5,66
2025-04-15 10:28:28.607,0,0,0,19,31
2025-04-15 10:28:28.608,0,0,0,0,0
2025-04-15 10:28:28.609,0,0,0,0,8
2025-04-15 10:28:28.609,0,0,0,0,0
2025-04-15 10:28:28.610,0,0,0,0,0
2025-04-15 10:28:28.610,0,0,0,0,0
2025-04-15 10:28:28.611,0,0,0,0,0
2025-04-15 10:28:28.612,0,0,0,0,0
2025-04-15 10:28:28.612,0,0,0,0,0
2025-04-15 10:28:28.613,0,0,0,0,0
2025-04-15 10:28:28.613,0,0,0,0,0
2025-04-15 10:28:28.614,0,0,0,0,0
2025-04-15 10:28:28.614,0,0,0,0,0
2025-04-15 10:28:28.615,0,0,0,0,0
2025-04-15 10:28:28.616,0,0,0,0,0
2025-04-15 10:28:28.616,0,0,0,0,0
2025-04-15 10:28:28.617,0,0,0,0,0
2025-04-15 10:28:28.618,0,0,0,0,0
2025-04-15 10:28:28.619,0,0,0,0,0
2025-04-15 10:28:28.619,0,0,0,0,0
2025-04-15 10:28:28.620,0,0,0,0,0
2025-04-15 10:28:28.620,0,0,0,0,0
2025-04-15 10:28:28.621,0,0,0,0,0
2025-04-15 10:28:28.621,0,0,0,0,0
2025-04-15 10:28:28.622,4,0,0,0,0
2025-04-15 10:28:28.623,0,0,0,0,0
2025-04-15 10:28:28.623,1,0,0,0,0
2025-04-15 10:28:28.624,3,5,0,0,0
2025-04-15 10:28:28.625,18,10,4,0,0
2025-04-15 10:28:28.625,19,9,8,0,0
2025-04-15 10:28:28.626,17,26,19,0,0
2025-04-15 10:28:28.627,40,25,25,0,0
2025-04-15 10:28:28.627,16,28,40,16,0
2025-04-15 10:28:28.628,25,28,36,30,13
2025-04-15 10:28:28.629,10,22,37,40,23
2025-04-15 10:28:28.630,0,27,38,32,30
2025-04-15 10:28:28.631,30,31,34,30,20
2025-04-15 10:28:28.632,17,32,38,32,30
2025-04-15 10:28:28.634,44,31,35,40,32
2025-04-15 10:28:28.635,95,19,25,28,34
2025-04-15 10:28:28.635,32,21,35,28,19
2025-04-15 10:28:28.636,106,20,31,45,29
2025-04-15 10:28:28.637,64,17,29,24,47
2025-04-15 10:28:28.638,0,35,30,35,39
2025-04-15 10:28:28.638,0,8,26,36,33
2025-04-15 10:28:28.641,0,22,22,42,40
2025-04-15 10:28:28.661,0,5,21,40,37
2025-04-15 10:28:28.662,0,0,27,30,15
2025-04-15 10:28:28.669,0,9,20,30,25
2025-04-15 10:28:28.681,0,0,10,21,30
2025-04-15 10:28:28.688,0,23,16,26,24
2025-04-15 10:28:28.701,0,51,12,26,18
2025-04-15 10:28:28.709,0,0,8,12,20
2025-04-15 10:28:28.726,0,79,0,24,17
2025-04-15 10:28:28.728,0,0,0,8,21
2025-04-15 10:28:28.741,0,0,0,0,0
2025-04-15 10:28:28.749,0,0,0,0,0
2025-04-15 10:28:28.761,0,0,0,0,4
2025-04-15 10:28:28.768,0,0,0,0,0
2025-04-15 10:28:28.792,0,0,0,0,0
2025-04-15 10:28:28.793,0,0,0,0,0
2025-04-15 10:28:28.794,0,0,0,0,0
2025-04-15 10:28:28.801,0,0,0,0,0
2025-04-15 10:28:28.809,0,0,0,0,0
2025-04-15 10:28:28.821,0,0,0,0,0
2025-04-15 10:28:28.829,3,0,31,0,0
2025-04-15 10:28:28.858,0,0,0,0,0
2025-04-15 10:28:28.859,8,0,11,0,0
2025-04-15 10:28:28.861,7,0,0,0,0
2025-04-15 10:28:28.868,16,0,0,0,0
2025-04-15 10:28:28.881,15,0,0,0,0
2025-04-15 10:28:28.888,14,0,0,0,0
2025-04-15 10:28:28.901,24,3,0,0,0
2025-04-15 10:28:28.925,29,18,0,0,0
2025-04-15 10:28:28.926,35,24,0,0,0
2025-04-15 10:28:28.929,43,23,0,0,0
2025-04-15 10:28:28.941,54,40,0,0,0
2025-04-15 10:28:28.954,65,50,0,0,0
2025-04-15 10:28:28.961,78,68,0,0,0
2025-04-15 10:28:28.973,98,82,0,0,0
2025-04-15 10:28:28.990,118,97,10,0,0
2025-04-15 10:28:28.993,140,122,44,20,0
2025-04-15 10:28:29.001,163,131,74,9,0
2025-04-15 10:28:29.013,165,152,111,45,4
2025-04-15 10:28:29.021,163,157,129,49,22
2025-04-15 10:28:29.033,163,159,146,35,39
2025-04-15 10:28:29.057,171,152,145,86,55
2025-04-15 10:28:29.060,163,161,149,63,62
2025-04-15 10:28:29.061,171,166,151,122,61
2025-04-15 10:28:29.073,164,162,159,153,80
2025-04-15 10:28:29.080,174,169,162,131,89
2025-04-15 10:28:29.093,184,158,156,202,103
2025-04-15 10:28:29.101,188,179,177,138,97
2025-04-15 10:28:29.125,168,183,171,129,108
2025-04-15 10:28:29.127,195,184,190,110,112
2025-04-15 10:28:29.133,185,196,187,0,103
2025-04-15 10:28:29.141,187,197,192,22,132
2025-04-15 10:28:29.153,205,196,186,23,105
2025-04-15 10:28:29.161,207,204,183,41,95
2025-04-15 10:28:29.173,189,201,192,86,115
2025-04-15 10:28:29.192,188,199,205,96,84
2025-04-15 10:28:29.194,169,187,192,96,141
2025-04-15 10:28:29.205,169,189,187,104,153
2025-04-15 10:28:29.213,160,176,184,110,156
2025-04-15 10:28:29.224,163,174,182,113,232
2025-04-15 10:28:29.233,154,157,173,120,157
2025-04-15 10:28:29.258,133,158,157,126,221
2025-04-15 10:28:29.259,129,125,149,141,172
2025-04-15 10:28:29.265,130,126,135,132,53
2025-04-15 10:28:29.273,146,136,141,141,56
2025-04-15 10:28:29.285,120,120,137,122,0
2025-04-15 10:28:29.292,135,123,135,123,0
2025-04-15 10:28:29.304,123,115,134,129,7
2025-04-15 10:28:29.323,129,110,133,129,16
2025-04-15 10:28:29.325,115,95,127,123,38
2025-04-15 10:28:29.332,63,98,122,127,36
2025-04-15 10:28:29.345,92,88,110,125,31
2025-04-15 10:28:29.353,84,95,102,119,32
2025-04-15 10:28:29.364,67,87,96,113,37
2025-04-15 10:28:29.388,41,49,85,111,46
2025-04-15 10:28:29.390,34,60,78,112,58
2025-04-15 10:28:29.392,77,71,74,105,64
2025-04-15 10:28:29.405,35,60,71,103,85
2025-04-15 10:28:29.413,32,53,73,95,87
2025-04-15 10:28:29.425,28,17,49,88,86
2025-04-15 10:28:29.432,0,2,41,84,81
2025-04-15 10:28:29.458,8,25,39,95,78
2025-04-15 10:28:29.459,5,9,47,82,92
2025-04-15 10:28:29.465,0,8,26,75,82
2025-04-15 10:28:29.472,0,8,38,86,87
2025-04-15 10:28:29.485,0,8,44,64,87
2025-04-15 10:28:29.493,0,13,38,74,80
2025-04-15 10:28:29.504,0,8,39,74,85
2025-04-15 10:28:29.524,0,0,29,75,78
2025-04-15 10:28:29.525,0,0,13,57,77
2025-04-15 10:28:29.532,0,0,0,29,64
2025-04-15 10:28:29.545,0,0,0,47,49
2025-04-15 10:28:29.552,0,0,0,28,64
2025-04-15 10:28:29.564,0,0,0,18,46
2025-04-15 10:28:29.573,0,0,0,0,35
2025-04-15 10:28:29.592,0,0,0,0,13
2025-04-15 10:28:29.597,0,0,0,5,0
2025-04-15 10:28:29.604,0,0,0,0,3
2025-04-15 10:28:29.616,0,0,0,0,0
2025-04-15 10:28:29.625,0,0,0,0,0
2025-04-15 10:28:29.632,0,0,0,0,0
2025-04-15 10:28:29.660,0,0,0,0,0
2025-04-15 10:28:29.662,0,0,0,0,0
2025-04-15 10:28:29.665,0,0,0,0,0
2025-04-15 10:28:29.676,0,7,0,0,0
2025-04-15 10:28:29.684,0,0,0,0,0
2025-04-15 10:28:29.697,0,0,0,0,0
2025-04-15 10:28:29.704,0,0,0,0,0
2025-04-15 10:28:29.726,0,0,0,0,0
2025-04-15 10:28:29.727,0,0,0,0,0
2025-04-15 10:28:29.736,0,0,0,0,0
2025-04-15 10:28:29.744,0,0,0,0,0
2025-04-15 10:28:29.755,0,0,0,0,0
2025-04-15 10:28:29.764,0,0,0,0,0
2025-04-15 10:28:29.791,0,0,0,0,0
2025-04-15 10:28:29.792,0,0,0,0,0
2025-04-15 10:28:29.797,0,8,0,0,0
2025-04-15 10:28:29.798,0,8,0,0,0
2025-04-15 10:28:29.804,0,0,0,0,0
2025-04-15 10:28:29.816,0,0,0,0,0
2025-04-15 10:28:29.824,0,0,0,0,0
2025-04-15 10:28:29.836,0,0,0,0,0
2025-04-15 10:28:29.858,0,0,0,0,0
2025-04-15 10:28:29.859,0,0,0,0,0
2025-04-15 10:28:29.864,0,0,1,0,0
2025-04-15 10:28:29.876,0,0,0,0,0
2025-04-15 10:28:29.884,0,0,0,0,0
2025-04-15 10:28:29.896,0,0,0,0,0
2025-04-15 10:28:29.904,0,0,0,0,0
2025-04-15 10:28:29.926,0,0,0,0,0
2025-04-15 10:28:29.928,0,0,0,1,0
2025-04-15 10:28:29.936,0,0,0,0,0
2025-04-15 10:28:29.944,0,0,0,0,0
2025-04-15 10:28:29.956,0,0,0,0,0
2025-04-15 10:28:29.964,0,4,0,0,0
2025-04-15 10:28:29.993,0,0,10,0,0
2025-04-15 10:28:29.995,8,0,0,0,0
2025-04-15 10:28:29.996,25,12,12,0,0
2025-04-15 10:28:30.008,56,6,22,5,0
2025-04-15 10:28:30.016,52,35,32,14,0
2025-04-15 10:28:30.028,57,66,39,0,0
2025-04-15 10:28:30.035,78,70,52,24,0
2025-04-15 10:28:30.061,101,94,57,41,0
2025-04-15 10:28:30.062,114,91,76,49,32
2025-04-15 10:28:30.068,138,124,89,90,13
2025-04-15 10:28:30.076,125,107,120,93,34
2025-04-15 10:28:30.088,110,107,158,119,87
2025-04-15 10:28:30.096,124,118,113,130,91
2025-04-15 10:28:30.108,121,121,142,111,122
2025-04-15 10:28:30.126,109,110,127,128,123
2025-04-15 10:28:30.128,114,133,122,139,138
2025-04-15 10:28:30.140,140,127,138,140,147
2025-04-15 10:28:30.148,117,142,122,135,122
2025-04-15 10:28:30.160,119,118,122,158,136
2025-04-15 10:28:30.168,124,119,121,153,131
2025-04-15 10:28:30.192,92,97,109,108,122
2025-04-15 10:28:30.193,81,99,93,131,119
2025-04-15 10:28:30.200,79,101,95,101,128
2025-04-15 10:28:30.208,74,79,78,117,98
2025-04-15 10:28:30.220,49,58,74,114,75
2025-04-15 10:28:30.228,52,46,56,111,87
2025-04-15 10:28:30.240,48,47,63,55,95
2025-04-15 10:28:30.258,41,37,39,36,81
2025-04-15 10:28:30.260,58,48,51,30,84
2025-04-15 10:28:30.268,47,39,49,46,53
2025-04-15 10:28:30.280,47,48,51,58,31
2025-04-15 10:28:30.289,44,50,38,65,27
2025-04-15 10:28:30.301,56,60,65,60,38
2025-04-15 10:28:30.329,69,72,65,35,41
2025-04-15 10:28:30.331,67,74,80,75,57
2025-04-15 10:28:30.333,72,80,66,51,48
2025-04-15 10:28:30.341,75,80,84,52,54
2025-04-15 10:28:30.348,88,96,75,87,62
2025-04-15 10:28:30.361,92,83,67,62,81
2025-04-15 10:28:30.367,104,85,77,78,58
2025-04-15 10:28:30.395,110,105,115,91,45
2025-04-15 10:28:30.397,109,113,116,102,59
2025-04-15 10:28:30.399,112,123,121,102,103
2025-04-15 10:28:30.408,97,112,117,98,76
2025-04-15 10:28:30.420,121,114,120,108,90
2025-04-15 10:28:30.428,122,117,116,136,91
2025-04-15 10:28:30.441,112,105,123,125,85
2025-04-15 10:28:30.461,117,111,123,123,117
2025-04-15 10:28:30.462,121,119,141,122,121
2025-04-15 10:28:30.471,119,102,111,117,111
2025-04-15 10:28:30.480,98,112,116,119,105
2025-04-15 10:28:30.491,111,107,109,116,130
2025-04-15 10:28:30.500,90,111,109,122,104
2025-04-15 10:28:30.525,90,107,92,139,130
2025-04-15 10:28:30.527,75,85,96,123,126
2025-04-15 10:28:30.532,68,69,86,116,119
2025-04-15 10:28:30.539,44,49,62,81,113
2025-04-15 10:28:30.551,16,34,55,79,103
2025-04-15 10:28:30.560,9,32,45,66,76
2025-04-15 10:28:30.571,0,5,21,51,76
2025-04-15 10:28:30.591,0,0,0,28,69
2025-04-15 10:28:30.593,0,0,0,26,36
2025-04-15 10:28:30.599,0,0,0,0,12
2025-04-15 10:28:30.607,0,0,0,0,1
2025-04-15 10:28:30.620,0,0,0,0,0
2025-04-15 10:28:30.631,0,0,0,0,0
2025-04-15 10:28:30.639,0,0,0,0,0
2025-04-15 10:28:30.659,0,0,0,0,0
2025-04-15 10:28:30.660,0,0,0,0,0
2025-04-15 10:28:30.672,0,0,0,0,0
2025-04-15 10:28:30.679,0,0,0,0,0
2025-04-15 10:28:30.692,0,0,0,0,0
2025-04-15 10:28:30.699,0,0,0,0,0
2025-04-15 10:28:30.727,0,0,0,0,0
2025-04-15 10:28:30.728,0,0,0,0,0
2025-04-15 10:28:30.731,0,0,0,0,0
2025-04-15 10:28:30.739,0,0,0,0,0
2025-04-15 10:28:30.751,13,0,0,0,0
2025-04-15 10:28:30.759,46,18,8,0,0
2025-04-15 10:28:30.772,80,51,27,0,0
2025-04-15 10:28:30.793,87,90,63,6,0
2025-04-15 10:28:30.795,99,90,87,30,0
2025-04-15 10:28:30.804,114,100,105,92,11
2025-04-15 10:28:30.805,114,100,105,92,11
2025-04-15 10:28:30.812,110,107,112,106,89
2025-04-15 10:28:30.824,84,103,116,113,84
2025-04-15 10:28:30.832,46,107,107,111,110
2025-04-15 10:28:30.862,78,92,104,121,116
2025-04-15 10:28:30.864,36,94,102,117,112
2025-04-15 10:28:30.865,103,82,95,96,122
2025-04-15 10:28:30.873,128,80,77,106,114
2025-04-15 10:28:30.883,98,70,78,105,98
2025-04-15 10:28:30.892,157,44,70,85,96
2025-04-15 10:28:30.904,65,42,55,82,96
2025-04-15 10:28:30.911,60,29,44,62,76
2025-04-15 10:28:30.929,20,18,31,60,62
2025-04-15 10:28:30.931,0,36,17,38,57
2025-04-15 10:28:30.943,0,9,25,42,45
2025-04-15 10:28:30.951,0,0,22,46,15
2025-04-15 10:28:30.963,0,4,30,31,33
2025-04-15 10:28:30.972,0,0,25,26,18
2025-04-15 10:28:30.995,0,17,25,30,25
2025-04-15 10:28:30.997,0,37,24,18,12
2025-04-15 10:28:31.004,0,45,24,26,31
2025-04-15 10:28:31.011,0,131,11,29,33
2025-04-15 10:28:31.023,0,45,19,28,25
2025-04-15 10:28:31.032,0,118,7,43,22
2025-04-15 10:28:31.043,0,52,20,23,30
2025-04-15 10:28:31.062,17,0,36,34,27
2025-04-15 10:28:31.064,26,0,8,34,30
2025-04-15 10:28:31.072,33,0,23,33,33
2025-04-15 10:28:31.084,47,0,3,33,18
2025-04-15 10:28:31.092,61,0,0,34,23
2025-04-15 10:28:31.103,65,0,12,26,30
2025-04-15 10:28:31.129,64,0,0,33,31
2025-04-15 10:28:31.130,70,0,49,30,15
2025-04-15 10:28:31.131,90,0,96,26,22
2025-04-15 10:28:31.143,90,0,72,41,27
2025-04-15 10:28:31.156,94,0,147,40,27
2025-04-15 10:28:31.163,106,9,68,40,43
2025-04-15 10:28:31.176,107,38,68,55,32
2025-04-15 10:28:31.194,115,59,59,57,44
2025-04-15 10:28:31.195,138,88,0,64,47
2025-04-15 10:28:31.204,131,103,0,70,64
2025-04-15 10:28:31.215,129,111,0,81,65
2025-04-15 10:28:31.223,113,110,0,97,61
2025-04-15 10:28:31.235,109,102,2,86,85
2025-04-15 10:28:31.242,74,84,0,81,100
2025-04-15 10:28:31.259,57,71,0,59,72
2025-04-15 10:28:31.263,50,51,0,41,73
2025-04-15 10:28:31.275,32,41,0,22,55
2025-04-15 10:28:31.283,23,40,0,6,46
2025-04-15 10:28:31.296,15,33,0,0,14
2025-04-15 10:28:31.303,5,19,0,0,18
2025-04-15 10:28:31.324,10,36,0,20,10
2025-04-15 10:28:31.326,0,3,0,0,6
2025-04-15 10:28:31.335,0,3,0,0,0
2025-04-15 10:28:31.342,0,0,0,0,0
2025-04-15 10:28:31.355,0,0,0,0,0
2025-04-15 10:28:31.363,0,0,0,0,0
2025-04-15 10:28:31.391,0,0,0,0,0
2025-04-15 10:28:31.393,0,0,0,0,0
2025-04-15 10:28:31.395,0,0,0,0,0
2025-04-15 10:28:31.402,4,0,0,0,0
2025-04-15 10:28:31.415,23,0,0,23,0
2025-04-15 10:28:31.423,7,2,0,0,0
2025-04-15 10:28:31.434,37,20,2,0,0
2025-04-15 10:28:31.459,54,26,7,0,0
2025-04-15 10:28:31.460,57,56,38,0,0
2025-04-15 10:28:31.467,55,64,68,0,0
2025-04-15 10:28:31.474,84,64,63,0,0
2025-04-15 10:28:31.487,68,71,61,0,0
2025-04-15 10:28:31.495,71,67,69,0,0
2025-04-15 10:28:31.507,67,83,68,0,0
2025-04-15 10:28:31.526,63,88,73,0,14
2025-04-15 10:28:31.527,62,88,70,0,46
2025-04-15 10:28:31.536,78,76,67,0,47
2025-04-15 10:28:31.547,89,79,76,0,123
2025-04-15 10:28:31.555,87,88,75,0,51
2025-04-15 10:28:31.567,86,80,90,3,114
2025-04-15 10:28:31.595,59,77,73,28,47
2025-04-15 10:28:31.596,80,71,75,33,0
2025-04-15 10:28:31.598,82,67,88,58,0
2025-04-15 10:28:31.608,98,84,86,63,0
2025-04-15 10:28:31.609,98,84,86,63,0
2025-04-15 10:28:31.615,100,90,81,76,0
2025-04-15 10:28:31.628,88,97,97,88,0
2025-04-15 10:28:31.636,77,74,97,92,0
2025-04-15 10:28:31.665,67,69,98,94,0
2025-04-15 10:28:31.667,61,73,94,103,0
2025-04-15 10:28:31.668,47,60,72,93,0
2025-04-15 10:28:31.675,46,59,65,94,2
2025-04-15 10:28:31.687,45,42,53,74,15
2025-04-15 10:28:31.695,57,65,56,65,18
2025-04-15 10:28:31.707,58,48,56,59,22
2025-04-15 10:28:31.736,55,60,69,57,28
2025-04-15 10:28:31.738,60,35,67,61,31
2025-04-15 10:28:31.739,70,39,61,65,47
2025-04-15 10:28:31.747,54,47,47,55,48
2025-04-15 10:28:31.759,50,48,48,64,55
2025-04-15 10:28:31.767,61,64,46,61,49
2025-04-15 10:28:31.779,52,66,67,63,55
2025-04-15 10:28:31.805,86,58,39,56,53
2025-04-15 10:28:31.807,35,54,67,64,57
2025-04-15 10:28:31.808,39,43,57,66,57
2025-04-15 10:28:31.818,68,55,65,63,51
2025-04-15 10:28:31.827,62,61,55,63,45
2025-04-15 10:28:31.839,53,56,54,64,53
2025-04-15 10:28:31.847,58,83,57,59,55
2025-04-15 10:28:31.872,51,50,47,64,61
2025-04-15 10:28:31.874,74,17,61,57,55
2025-04-15 10:28:31.878,59,34,58,59,54
2025-04-15 10:28:31.887,46,74,48,59,57
2025-04-15 10:28:31.898,49,59,54,62,53
2025-04-15 10:28:31.906,47,87,53,61,61
2025-04-15 10:28:31.919,58,45,49,57,60
2025-04-15 10:28:31.939,86,53,48,65,48
2025-04-15 10:28:31.940,59,62,69,46,54
2025-04-15 10:28:31.947,30,64,66,41,54
2025-04-15 10:28:31.959,62,52,46,63,55
2025-04-15 10:28:31.966,67,66,46,62,52
2025-04-15 10:28:31.978,66,63,51,67,57
2025-04-15 10:28:32.003,59,45,41,60,58
2025-04-15 10:28:32.005,54,51,57,61,54
2025-04-15 10:28:32.010,45,52,72,41,49
2025-04-15 10:28:32.019,62,60,65,51,52
2025-04-15 10:28:32.030,60,34,68,51,56
2025-04-15 10:28:32.039,47,64,39,56,48
2025-04-15 10:28:32.050,49,41,63,52,63
2025-04-15 10:28:32.069,37,54,77,52,41
2025-04-15 10:28:32.070,58,42,29,63,49
2025-04-15 10:28:32.079,49,76,61,67,49
2025-04-15 10:28:32.091,53,54,32,73,39
2025-04-15 10:28:32.099,68,33,60,62,39
2025-04-15 10:28:32.110,55,61,77,56,47
2025-04-15 10:28:32.136,45,53,58,39,60
2025-04-15 10:28:32.137,36,45,74,36,58
2025-04-15 10:28:32.138,54,48,71,65,45
2025-04-15 10:28:32.151,32,47,74,34,39
2025-04-15 10:28:32.159,34,62,50,53,42
2025-04-15 10:28:32.170,63,40,47,59,46
2025-04-15 10:28:32.179,40,53,48,53,55
2025-04-15 10:28:32.201,33,59,62,29,47
2025-04-15 10:28:32.203,57,46,63,52,36
2025-04-15 10:28:32.211,18,43,53,36,55
2025-04-15 10:28:32.218,34,59,47,45,32
2025-04-15 10:28:32.230,36,46,64,29,31
2025-04-15 10:28:32.238,42,52,40,53,63
2025-04-15 10:28:32.267,44,69,19,28,31
2025-04-15 10:28:32.268,53,69,34,47,38
2025-04-15 10:28:32.270,62,67,27,52,28
2025-04-15 10:28:32.283,55,56,43,50,50
2025-04-15 10:28:32.290,42,44,58,25,43
2025-04-15 10:28:32.303,44,51,48,71,55
2025-04-15 10:28:32.311,38,56,44,61,42
2025-04-15 10:28:32.334,59,41,43,69,56
2025-04-15 10:28:32.336,46,81,37,47,35
2025-04-15 10:28:32.342,33,64,35,43,72
2025-04-15 10:28:32.351,30,52,62,31,42
2025-04-15 10:28:32.362,63,59,53,57,40
2025-04-15 10:28:32.370,61,47,30,64,36
2025-04-15 10:28:32.383,39,42,85,58,59
2025-04-15 10:28:32.401,40,62,52,25,39
2025-04-15 10:28:32.402,44,47,47,54,56
2025-04-15 10:28:32.410,54,28,74,51,46
2025-04-15 10:28:32.422,48,56,43,54,34
2025-04-15 10:28:32.430,64,33,85,49,43
2025-04-15 10:28:32.442,53,46,71,78,50
2025-04-15 10:28:32.467,44,35,84,46,64
2025-04-15 10:28:32.469,57,57,67,56,27
2025-04-15 10:28:32.470,37,26,59,65,61
2025-04-15 10:28:32.483,33,31,41,61,31
2025-04-15 10:28:32.490,42,30,49,26,43
2025-04-15 10:28:32.503,53,48,52,47,42
2025-04-15 10:28:32.510,37,43,29,51,34
2025-04-15 10:28:32.534,58,44,36,52,20
2025-04-15 10:28:32.535,46,34,36,60,54
2025-04-15 10:28:32.542,43,29,35,59,14
2025-04-15 10:28:32.554,38,50,39,49,41
2025-04-15 10:28:32.562,34,37,42,40,59
2025-04-15 10:28:32.574,48,36,50,69,49
2025-04-15 10:28:32.583,37,48,34,47,26
2025-04-15 10:28:32.599,35,34,40,25,66
2025-04-15 10:28:32.602,36,30,35,50,38
2025-04-15 10:28:32.615,42,50,28,68,60
2025-04-15 10:28:32.616,42,50,28,68,60
2025-04-15 10:28:32.622,45,41,50,35,27
2025-04-15 10:28:32.634,39,53,47,79,27
2025-04-15 10:28:32.641,23,44,39,59,47
2025-04-15 10:28:32.665,37,61,60,37,29
2025-04-15 10:28:32.666,36,46,46,34,56
2025-04-15 10:28:32.675,36,39,38,44,36
2025-04-15 10:28:32.682,31,56,54,37,32
2025-04-15 10:28:32.695,29,36,56,48,55
2025-04-15 10:28:32.702,27,39,25,70,38
2025-04-15 10:28:32.714,39,49,45,54,25
2025-04-15 10:28:32.733,35,46,36,49,30
2025-04-15 10:28:32.735,42,61,25,46,65
2025-04-15 10:28:32.743,51,111,56,97,29
2025-04-15 10:28:32.753,97,230,66,287,103
2025-04-15 10:28:32.767,342,567,135,944,209
2025-04-15 10:28:32.774,1220,1329,378,2561,550
2025-04-15 10:28:32.800,3444,2871,994,5912,1390
2025-04-15 10:28:32.802,8055,5609,2287,11827,3125
2025-04-15 10:28:32.806,16121,9989,4637,20950,6081
2025-04-15 10:28:32.813,28214,16279,8367,33645,10633
2025-04-15 10:28:32.826,44151,24350,13692,49429,16937
2025-04-15 10:28:32.834,62330,33321,20425,66595,24751
2025-04-15 10:28:32.846,80055,42097,28148,83621,33240
2025-04-15 10:28:32.868,94513,49941,36029,99137,41691
2025-04-15 10:28:32.869,104919,56744,43601,112958,49425
2025-04-15 10:28:32.878,111603,62710,50465,124961,56419
2025-04-15 10:28:32.886,116898,68839,57719,137938,62723
2025-04-15 10:28:32.898,124523,76328,66802,154103,69683
2025-04-15 10:28:32.906,135605,85446,78390,174938,78253
2025-04-15 10:28:32.935,152033,98024,94082,203568,89129
2025-04-15 10:28:32.937,174487,116503,116963,237575,104010
2025-04-15 10:28:32.938,205035,139595,152548,270444,126165
2025-04-15 10:28:32.946,237580,172295,188692,303626,155818
2025-04-15 10:28:32.958,270299,202627,216837,336074,188857
2025-04-15 10:28:32.966,268053,180352,196480,368993,221625
2025-04-15 10:28:32.978,245888,147968,164224,344000,227535
2025-04-15 10:28:33.002,213056,115072,131456,318507,196480
2025-04-15 10:28:33.003,180352,82368,98752,306765,177161
2025-04-15 10:28:33.006,147968,55859,65920,294912,173916
2025-04-15 10:28:33.017,134264,56332,56681,282934,170564
2025-04-15 10:28:33.026,134467,57172,56586,273110,167605
2025-04-15 10:28:33.038,135322,58747,56928,265854,165309
2025-04-15 10:28:33.046,136420,60481,57430,260733,164053
2025-04-15 10:28:33.069,138158,62201,57995,257580,163670
2025-04-15 10:28:33.070,140433,63735,58553,255537,164088
2025-04-15 10:28:33.078,142783,65084,59049,253727,164855
2025-04-15 10:28:33.086,144629,66227,59357,251779,165608
2025-04-15 10:28:33.098,146477,67236,59434,249727,166050
2025-04-15 10:28:33.106,148466,68281,59362,247513,166563
2025-04-15 10:28:33.117,150127,69342,59167,245193,167045
2025-04-15 10:28:33.135,151762,70435,58970,243308,167559
2025-04-15 10:28:33.138,153320,71531,58795,241899,168300
2025-04-15 10:28:33.150,154828,72356,58607,240511,169020
2025-04-15 10:28:33.157,156781,73041,58456,239331,169399
2025-04-15 10:28:33.169,158736,73669,58410,238470,169650
2025-04-15 10:28:33.178,160761,74216,58524,237885,169882
2025-04-15 10:28:33.201,162701,74706,58744,237439,170105
2025-04-15 10:28:33.203,164429,75082,58968,236754,170343
2025-04-15 10:28:33.210,166052,75252,59181,235692,170308
2025-04-15 10:28:33.218,167653,75499,59451,235091,170008
2025-04-15 10:28:33.230,168414,75998,59666,234976,170044
2025-04-15 10:28:33.237,169207,76397,59991,235233,170275
2025-04-15 10:28:33.250,169632,76866,60357,235609,170666
2025-04-15 10:28:33.268,169917,77160,60634,235751,171028
2025-04-15 10:28:33.269,170329,77310,60796,235783,171133
2025-04-15 10:28:33.278,170986,77286,60806,235481,171121
2025-04-15 10:28:33.290,171758,77224,60805,235203,171013
2025-04-15 10:28:33.298,172309,77195,60707,234890,170918
2025-04-15 10:28:33.309,172670,77254,60680,234616,170907
2025-04-15 10:28:33.332,172691,77373,60687,234390,170923
2025-04-15 10:28:33.333,172296,77536,60677,234160,170962
2025-04-15 10:28:33.338,171782,77741,60780,234087,170970
2025-04-15 10:28:33.350,171160,77942,60869,234110,171030
2025-04-15 10:28:33.357,170533,78138,60985,234317,171061
2025-04-15 10:28:33.369,169821,78338,61160,234692,171132
2025-04-15 10:28:33.378,168962,78592,61462,235527,171280
2025-04-15 10:28:33.397,167970,78726,61813,236457,171547
2025-04-15 10:28:33.401,166968,78741,62081,237494,171784
2025-04-15 10:28:33.410,165960,78635,62243,238489,171985
2025-04-15 10:28:33.421,165128,78367,62274,239411,172169
2025-04-15 10:28:33.425,165128,78367,62274,239411,172169
2025-04-15 10:28:33.430,163875,77777,62345,241535,172354
2025-04-15 10:28:33.442,163220,77593,62518,242969,172761
2025-04-15 10:28:33.467,162655,77526,62875,245128,173165
2025-04-15 10:28:33.469,161860,77763,63652,249406,174029
2025-04-15 10:28:33.470,160746,78145,64561,256234,175984
2025-04-15 10:28:33.482,159561,78138,65563,263925,179215
2025-04-15 10:28:33.490,158770,77870,66660,273547,182428
2025-04-15 10:28:33.502,159272,77835,68254,287383,186428
2025-04-15 10:28:33.510,170641,79178,70591,312399,192063
2025-04-15 10:28:33.544,205548,107090,90708,352642,200775
2025-04-15 10:28:33.546,238117,140129,123673,385403,221792
2025-04-15 10:28:33.549,270671,172868,156193,386474,253686
2025-04-15 10:28:33.551,270393,183944,136747,360576,229568
2025-04-15 10:28:33.562,245888,150783,115072,327680,196480
2025-04-15 10:28:33.570,223856,136955,98532,294912,164224
2025-04-15 10:28:33.581,231145,142751,101799,262144,131456
2025-04-15 10:28:33.590,266277,171568,120528,286977,128039
2025-04-15 10:28:33.612,303349,205451,139840,319890,155642
2025-04-15 10:28:33.614,330100,237986,172541,352673,188848
2025-04-15 10:28:33.621,311424,213056,147968,327680,221630
2025-04-15 10:28:33.629,278336,180352,115072,294912,196480
2025-04-15 10:28:33.641,245888,147968,82368,276887,180488
2025-04-15 10:28:33.649,213056,115072,51946,273368,178721
2025-04-15 10:28:33.680,180352,82368,52062,271193,179126
2025-04-15 10:28:33.682,161746,79909,52416,269581,180128
2025-04-15 10:28:33.683,164410,81310,53089,269115,181633
2025-04-15 10:28:33.693,167155,82438,53803,268645,183568
2025-04-15 10:28:33.701,170015,83300,54486,267675,184936
2025-04-15 10:28:33.709,172549,84044,55144,266418,185495
2025-04-15 10:28:33.721,174838,84760,55751,265170,185571
2025-04-15 10:28:33.752,176809,85388,56315,264124,185527
2025-04-15 10:28:33.753,178304,85943,56742,262922,185555
2025-04-15 10:28:33.755,179443,86392,57051,261637,185426
2025-04-15 10:28:33.761,180367,86636,57238,260160,185191
2025-04-15 10:28:33.774,181162,86808,57379,258820,184867
2025-04-15 10:28:33.781,181900,86893,57508,257511,184533
2025-04-15 10:28:33.793,182523,86972,57608,256161,184162
2025-04-15 10:28:33.822,183072,87037,57661,254791,183793
2025-04-15 10:28:33.823,183582,87156,57742,253611,183351
2025-04-15 10:28:33.825,184130,87337,57862,252702,183012
2025-04-15 10:28:33.833,184554,87525,57950,251722,182777
2025-04-15 10:28:33.841,184863,87621,57970,250620,182511
2025-04-15 10:28:33.854,185035,87575,57915,249523,182116
2025-04-15 10:28:33.861,185190,87473,57839,248385,181800
2025-04-15 10:28:33.889,185298,87299,57756,247324,181366
2025-04-15 10:28:33.890,185464,87134,57662,246507,181007
2025-04-15 10:28:33.893,185605,86918,57582,245636,180702
2025-04-15 10:28:33.902,185708,86701,57483,244886,180405
2025-04-15 10:28:33.913,185876,86442,57397,244176,180121
2025-04-15 10:28:33.922,186060,86288,57364,243680,179920
2025-04-15 10:28:33.933,186235,86185,57376,243336,179785
2025-04-15 10:28:33.958,186517,86046,57351,242873,179702
2025-04-15 10:28:33.961,186656,85891,57322,242403,179572
2025-04-15 10:28:33.963,186829,85698,57255,241973,179442
2025-04-15 10:28:33.974,186974,85456,57178,241514,179326
2025-04-15 10:28:33.981,187141,85197,57067,240937,179164
2025-04-15 10:28:33.994,187293,84960,56965,240413,178962
2025-04-15 10:28:34.006,187407,84721,56860,239876,178797
2025-04-15 10:28:34.029,187526,84524,56747,239385,178618
2025-04-15 10:28:34.030,187623,84314,56662,238934,178496
2025-04-15 10:28:34.033,187681,84120,56565,238462,178369
2025-04-15 10:28:34.045,187651,83875,56430,237954,178242
2025-04-15 10:28:34.053,187483,83587,56234,237309,178048
2025-04-15 10:28:34.065,187309,83319,56043,236755,177791
2025-04-15 10:28:34.073,187139,82963,55869,236224,177567
2025-04-15 10:28:34.095,186989,82729,55705,235621,177359
2025-04-15 10:28:34.096,186789,82455,55530,234862,177086
2025-04-15 10:28:34.106,186529,82176,55341,233743,176571
2025-04-15 10:28:34.113,186103,81877,55113,232257,175843
2025-04-15 10:28:34.125,185347,81568,54889,230569,174731
2025-04-15 10:28:34.133,184300,81222,54666,229004,173471
2025-04-15 10:28:34.161,182894,80894,54400,227644,172288
2025-04-15 10:28:34.162,181540,80586,54200,226758,171347
2025-04-15 10:28:34.166,180466,80275,53915,225937,170706
2025-04-15 10:28:34.173,179602,79947,53733,225327,170141
2025-04-15 10:28:34.185,179073,79649,53593,224845,169731
2025-04-15 10:28:34.193,178892,79394,53421,224536,169458
2025-04-15 10:28:34.205,178890,79185,53349,224348,169314
2025-04-15 10:28:34.229,179064,78998,53248,224316,169275
2025-04-15 10:28:34.230,179407,78822,53160,224306,169367
2025-04-15 10:28:34.233,179772,78608,53076,224315,169499
2025-04-15 10:28:34.245,180192,78450,52999,224427,169675
2025-04-15 10:28:34.253,180598,78290,52919,224512,169871
2025-04-15 10:28:34.265,180916,78156,52847,224629,170075
2025-04-15 10:28:34.273,181169,78028,52799,224647,170275
2025-04-15 10:28:34.295,181325,77917,52727,224614,170454
2025-04-15 10:28:34.297,181429,77794,52663,224469,170533
2025-04-15 10:28:34.306,181487,77656,52590,224320,170486
2025-04-15 10:28:34.317,181567,77585,52536,224242,170469
2025-04-15 10:28:34.326,181646,77471,52480,224151,170471
2025-04-15 10:28:34.337,181697,77372,52408,224096,170498
2025-04-15 10:28:34.363,181716,77260,52358,224036,170571
2025-04-15 10:28:34.365,181733,77171,52300,223908,170579
2025-04-15 10:28:34.366,181748,77057,52246,223713,170573
2025-04-15 10:28:34.377,181755,76990,52230,223496,170422
2025-04-15 10:28:34.385,181777,76945,52187,223342,170363
2025-04-15 10:28:34.396,181814,76921,52176,223210,170280
2025-04-15 10:28:34.405,181817,76887,52167,222980,170183
2025-04-15 10:28:34.429,181842,76863,52163,222872,170069
2025-04-15 10:28:34.431,181892,76857,52175,222668,169975
2025-04-15 10:28:34.432,181892,76857,52175,222668,169975
2025-04-15 10:28:34.437,181977,76890,52244,222456,169723
2025-04-15 10:28:34.446,182053,76900,52275,222385,169673
2025-04-15 10:28:34.457,182146,76958,52332,222432,169665
2025-04-15 10:28:34.465,182218,76976,52372,222534,169696
2025-04-15 10:28:34.477,182352,76996,52409,222621,169761
2025-04-15 10:28:34.500,182472,77016,52450,222772,169891
2025-04-15 10:28:34.501,182564,77018,52482,222886,170028
2025-04-15 10:28:34.506,182680,77044,52512,223001,170159
2025-04-15 10:28:34.517,182796,77102,52552,223141,170331
2025-04-15 10:28:34.525,182900,77137,52589,223182,170404
2025-04-15 10:28:34.537,182994,77147,52628,223309,170536
2025-04-15 10:28:34.545,183066,77156,52645,223420,170591
2025-04-15 10:28:34.568,183180,77185,52672,223532,170724
2025-04-15 10:28:34.569,183288,77198,52723,223618,170900
2025-04-15 10:28:34.577,183390,77246,52773,223784,170995
2025-04-15 10:28:34.585,183498,77300,52826,223908,171120
2025-04-15 10:28:34.597,183630,77356,52882,223979,171231
2025-04-15 10:28:34.605,183743,77421,52937,224038,171336
2025-04-15 10:28:34.634,183853,77473,52970,224039,171394
2025-04-15 10:28:34.636,183921,77518,53016,224067,171444
2025-04-15 10:28:34.637,184001,77573,53037,224045,171461
2025-04-15 10:28:34.649,184074,77613,53086,224039,171472
2025-04-15 10:28:34.657,184164,77674,53120,224003,171507
2025-04-15 10:28:34.669,184225,77741,53173,224013,171511
2025-04-15 10:28:34.676,184328,77806,53210,224046,171538
2025-04-15 10:28:34.700,184426,77890,53279,224055,171551
2025-04-15 10:28:34.702,184488,77979,53336,224083,171619
2025-04-15 10:28:34.708,184574,78036,53392,224144,171678
2025-04-15 10:28:34.716,184665,78122,53436,224145,171724
2025-04-15 10:28:34.728,184741,78201,53511,224196,171769
2025-04-15 10:28:34.737,184838,78306,53583,224225,171820
2025-04-15 10:28:34.748,184932,78427,53654,224246,171860
2025-04-15 10:28:34.765,185036,78516,53719,224342,171927
2025-04-15 10:28:34.769,185099,78574,53762,224360,171983
2025-04-15 10:28:34.776,185208,78629,53824,224403,172029
2025-04-15 10:28:34.789,185289,78706,53872,224457,172089
2025-04-15 10:28:34.796,185422,78806,53940,224572,172131
2025-04-15 10:28:34.809,185512,78882,54014,224621,172257
2025-04-15 10:28:34.836,185616,78951,54058,224698,172312
2025-04-15 10:28:34.838,185698,79043,54107,224769,172392
2025-04-15 10:28:34.839,185809,79092,54132,224792,172460
2025-04-15 10:28:34.849,185867,79129,54186,224842,172527
2025-04-15 10:28:34.857,185935,79170,54205,224895,172616
2025-04-15 10:28:34.869,186017,79219,54249,225015,172702
2025-04-15 10:28:34.877,186088,79294,54297,225141,172822
2025-04-15 10:28:34.904,186199,79370,54352,225267,172922
2025-04-15 10:28:34.905,186305,79437,54414,225330,173047
2025-04-15 10:28:34.908,186425,79507,54493,225417,173119
2025-04-15 10:28:34.917,186527,79604,54567,225509,173177
2025-04-15 10:28:34.929,186642,79711,54629,225607,173253
2025-04-15 10:28:34.940,186752,79810,54696,225664,173352
2025-04-15 10:28:34.949,186855,79901,54770,225736,173405
2025-04-15 10:28:34.971,186923,79980,54824,225794,173460
2025-04-15 10:28:34.972,187010,80050,54849,225824,173530
2025-04-15 10:28:34.981,187049,80121,54888,225902,173597
2025-04-15 10:28:34.989,187099,80158,54934,225913,173665
2025-04-15 10:28:35.001,187192,80202,54966,225967,173691
2025-04-15 10:28:35.008,187292,80265,55016,226044,173743
2025-04-15 10:28:35.038,187367,80315,55049,226058,173793
2025-04-15 10:28:35.040,187418,80385,55104,226115,173855
2025-04-15 10:28:35.041,187496,80445,55127,226167,173928
2025-04-15 10:28:35.048,187547,80493,55183,226212,173975
2025-04-15 10:28:35.060,187640,80577,55239,226240,174065
2025-04-15 10:28:35.069,187708,80632,55268,226256,174099
2025-04-15 10:28:35.081,187767,80696,55308,226140,174102
2025-04-15 10:28:35.104,187698,80750,55344,225739,174039
2025-04-15 10:28:35.105,187373,80741,55304,224938,173677
2025-04-15 10:28:35.108,186665,80704,55261,223858,172908
2025-04-15 10:28:35.121,185462,80646,55197,222764,171952
2025-04-15 10:28:35.128,183819,80548,55112,221947,171014
2025-04-15 10:28:35.141,182056,80482,54902,221342,170300
2025-04-15 10:28:35.148,180825,80419,54725,220940,169818
2025-04-15 10:28:35.174,179923,80370,54586,220671,169433
2025-04-15 10:28:35.176,179213,80326,54492,220422,169168
2025-04-15 10:28:35.181,178790,80263,54443,220307,168969
2025-04-15 10:28:35.189,178599,80230,54405,220279,168831
2025-04-15 10:28:35.200,178619,80209,54433,220334,168812
2025-04-15 10:28:35.208,178748,80223,54483,220444,168879
2025-04-15 10:28:35.220,178931,80256,54543,220625,168960
2025-04-15 10:28:35.242,179187,80282,54605,220769,169107
2025-04-15 10:28:35.244,179187,80282,54605,220769,169107
2025-04-15 10:28:35.245,179676,80330,54731,221134,169420
2025-04-15 10:28:35.254,179908,80346,54781,221253,169575
2025-04-15 10:28:35.260,180100,80368,54811,221347,169701
2025-04-15 10:28:35.273,180282,80386,54827,221421,169766
2025-04-15 10:28:35.281,180440,80414,54883,221477,169862
2025-04-15 10:28:35.311,180597,80450,54933,221562,169922
2025-04-15 10:28:35.313,180777,80502,54984,221643,169997
2025-04-15 10:28:35.314,181012,80530,55013,221782,170135
2025-04-15 10:28:35.321,181234,80564,55051,221913,170269
2025-04-15 10:28:35.333,181420,80608,55104,221987,170376
2025-04-15 10:28:35.341,181501,80641,55141,221949,170448
2025-04-15 10:28:35.353,181465,80681,55178,221925,170432
2025-04-15 10:28:35.389,181293,80715,55161,221791,170397
2025-04-15 10:28:35.392,181117,80694,55156,221662,170305
2025-04-15 10:28:35.394,180845,80669,55105,221551,170223
2025-04-15 10:28:35.396,180655,80641,55076,221387,170097
2025-04-15 10:28:35.400,180470,80617,55037,221334,169997
2025-04-15 10:28:35.413,180377,80587,55003,221245,169911
2025-04-15 10:28:35.421,180324,80599,55017,221184,169881
2025-04-15 10:28:35.433,180353,80601,55020,221203,169857
2025-04-15 10:28:35.461,180391,80612,55063,221245,169877
2025-04-15 10:28:35.463,180497,80643,55060,221311,169925
2025-04-15 10:28:35.465,180634,80642,55089,221355,169991
2025-04-15 10:28:35.472,180862,80648,55122,221432,170042
2025-04-15 10:28:35.481,181078,80670,55167,221497,170143
2025-04-15 10:28:35.493,181336,80698,55194,221621,170262
2025-04-15 10:28:35.501,181667,80716,55236,221744,170344
2025-04-15 10:28:35.533,181954,80759,55301,221868,170479
2025-04-15 10:28:35.535,182229,80805,55367,222049,170624
2025-04-15 10:28:35.537,182562,80859,55424,222217,170781
2025-04-15 10:28:35.544,182854,80882,55481,222338,170930
2025-04-15 10:28:35.552,183164,80937,55540,222520,171065
2025-04-15 10:28:35.564,183428,80997,55617,222601,171239
2025-04-15 10:28:35.573,183660,81040,55660,222729,171356
2025-04-15 10:28:35.607,183886,81091,55699,222815,171471
2025-04-15 10:28:35.609,184119,81096,55724,222924,171580
2025-04-15 10:28:35.611,184330,81131,55778,222986,171660
2025-04-15 10:28:35.612,184558,81166,55815,223076,171728
2025-04-15 10:28:35.625,184715,81193,55847,223131,171824
2025-04-15 10:28:35.633,184864,81231,55884,223219,171928
2025-04-15 10:28:35.645,185007,81262,55890,223231,171971
2025-04-15 10:28:35.653,185132,81294,55947,223291,172040
2025-04-15 10:28:35.679,185246,81298,55946,223301,172086
2025-04-15 10:28:35.681,185374,81339,55976,223318,172146
2025-04-15 10:28:35.684,185474,81372,56005,223339,172155
2025-04-15 10:28:35.692,185577,81418,56067,223360,172210
2025-04-15 10:28:35.704,185648,81464,56100,223414,172257
2025-04-15 10:28:35.712,185742,81520,56119,223396,172298
2025-04-15 10:28:35.724,185812,81541,56158,223433,172336
2025-04-15 10:28:35.745,185892,81592,56193,223458,172376
2025-04-15 10:28:35.747,185956,81629,56214,223501,172420
2025-04-15 10:28:35.752,186031,81674,56264,223570,172468
2025-04-15 10:28:35.764,186108,81712,56283,223631,172520
2025-04-15 10:28:35.771,186203,81739,56332,223666,172580
2025-04-15 10:28:35.784,186299,81784,56354,223762,172647
2025-04-15 10:28:35.792,186414,81832,56406,223815,172745
2025-04-15 10:28:35.810,186525,81865,56435,223891,172769
2025-04-15 10:28:35.812,186644,81915,56458,223956,172848
2025-04-15 10:28:35.824,186769,81951,56514,224023,172980
2025-04-15 10:28:35.836,186909,82008,56561,224119,173034
2025-04-15 10:28:35.844,187019,82024,56566,224239,173147
2025-04-15 10:28:35.856,187134,82043,56600,224327,173233
2025-04-15 10:28:35.876,187262,82096,56633,224403,173321
2025-04-15 10:28:35.877,187372,82134,56662,224469,173421
2025-04-15 10:28:35.884,187504,82143,56699,224548,173493
2025-04-15 10:28:35.896,187625,82191,56745,224637,173595
2025-04-15 10:28:35.905,187766,82269,56772,224745,173708
2025-04-15 10:28:35.916,187854,82316,56827,224822,173812
2025-04-15 10:28:35.923,187948,82319,56843,224902,173899
2025-04-15 10:28:35.942,188058,82364,56883,224962,173944
2025-04-15 10:28:35.944,188148,82400,56897,225053,174054
2025-04-15 10:28:35.956,188262,82440,56928,225140,174147
2025-04-15 10:28:35.963,188356,82451,56958,225209,174226
2025-04-15 10:28:35.976,188440,82499,56967,225287,174299
2025-04-15 10:28:35.984,188508,82506,56979,225328,174373
2025-04-15 10:28:36.011,188621,82526,56990,225350,174462
2025-04-15 10:28:36.012,188733,82554,57010,225411,174540
2025-04-15 10:28:36.016,188789,82573,57032,225433,174604
2025-04-15 10:28:36.023,188875,82606,57045,225489,174672
2025-04-15 10:28:36.036,188922,82628,57081,225505,174721
2025-04-15 10:28:36.044,188984,82655,57090,225420,174748
2025-04-15 10:28:36.055,188838,82674,57091,225025,174686
2025-04-15 10:28:36.079,188450,82641,57041,224234,174347
2025-04-15 10:28:36.080,187529,82608,56974,223132,173661
2025-04-15 10:28:36.084,186153,82525,56875,222270,172697
2025-04-15 10:28:36.096,184219,82444,56677,221537,171916
2025-04-15 10:28:36.103,182515,82340,56432,221058,171289
2025-04-15 10:28:36.117,181303,82203,56217,220623,170807
2025-04-15 10:28:36.124,180437,82074,56026,220302,170375
2025-04-15 10:28:36.144,179877,81947,55882,220066,170026
2025-04-15 10:28:36.146,179569,81819,55821,219927,169838
2025-04-15 10:28:36.156,179440,81705,55784,219841,169624
2025-04-15 10:28:36.168,179462,81626,55792,219811,169556
2025-04-15 10:28:36.176,179585,81548,55835,219869,169537
2025-04-15 10:28:36.188,179740,81502,55897,219942,169527
2025-04-15 10:28:36.210,179930,81491,55965,220040,169584
2025-04-15 10:28:36.211,180122,81472,56035,220101,169670
2025-04-15 10:28:36.215,180349,81452,56097,220202,169704
2025-04-15 10:28:36.228,180457,81422,56133,220290,169761
2025-04-15 10:28:36.236,180597,81382,56194,220299,169789
2025-04-15 10:28:36.239,180597,81382,56194,220299,169789
2025-04-15 10:28:36.247,180638,81329,56222,220300,169820
2025-04-15 10:28:36.256,180653,81270,56249,220226,169789
2025-04-15 10:28:36.277,180602,81248,56256,220240,169784
2025-04-15 10:28:36.279,180647,81225,56276,220217,169747
2025-04-15 10:28:36.288,180733,81186,56307,220255,169734
2025-04-15 10:28:36.295,180888,81163,56328,220264,169760
2025-04-15 10:28:36.307,180987,81114,56365,220249,169767
2025-04-15 10:28:36.316,181039,81100,56382,220228,169768
2025-04-15 10:28:36.349,181020,81112,56396,220164,169737
2025-04-15 10:28:36.351,180950,81038,56401,220092,169688
2025-04-15 10:28:36.352,180842,81042,56403,220040,169627
2025-04-15 10:28:36.356,180723,80967,56383,219952,169550
2025-04-15 10:28:36.368,180624,80891,56366,219906,169491
2025-04-15 10:28:36.376,180516,80862,56370,219872,169450
2025-04-15 10:28:36.388,180476,80806,56343,219814,169373
2025-04-15 10:28:36.396,180469,80757,56361,219798,169329
2025-04-15 10:28:36.422,180491,80710,56366,219755,169284
2025-04-15 10:28:36.424,180530,80684,56375,219762,169249
2025-04-15 10:28:36.428,180617,80656,56429,219768,169259
2025-04-15 10:28:36.440,180751,80639,56447,219841,169280
2025-04-15 10:28:36.447,180881,80609,56486,219880,169315
2025-04-15 10:28:36.456,181070,80592,56494,219888,169351
2025-04-15 10:28:36.468,181222,80595,56593,219947,169402
2025-04-15 10:28:36.492,181428,80577,56601,220050,169456
2025-04-15 10:28:36.493,181645,80554,56618,220093,169529
2025-04-15 10:28:36.499,181884,80569,56710,220193,169617
2025-04-15 10:28:36.508,182111,80553,56701,220267,169675
2025-04-15 10:28:36.519,182370,80570,56772,220381,169819
2025-04-15 10:28:36.528,182585,80566,56801,220477,169868
2025-04-15 10:28:36.540,182827,80576,56859,220508,169978
2025-04-15 10:28:36.559,183011,80574,56886,220609,170046
2025-04-15 10:28:36.560,183249,80576,56934,220642,170124
2025-04-15 10:28:36.567,183434,80618,56966,220720,170195
2025-04-15 10:28:36.579,183607,80656,57036,220790,170250
2025-04-15 10:28:36.588,183772,80680,57068,220869,170346
2025-04-15 10:28:36.599,183902,80713,57106,220868,170365
2025-04-15 10:28:36.606,184016,80719,57141,220854,170403
2025-04-15 10:28:36.626,184123,80750,57178,220843,170439
2025-04-15 10:28:36.628,184228,80774,57201,220904,170502
2025-04-15 10:28:36.639,184302,80829,57244,220913,170505
2025-04-15 10:28:36.648,184370,80853,57279,220944,170538
2025-04-15 10:28:36.660,184434,80882,57321,220945,170549
2025-04-15 10:28:36.668,184472,80927,57344,220969,170577
2025-04-15 10:28:36.693,184522,80982,57379,220979,170595
2025-04-15 10:28:36.695,184567,80991,57419,220963,170616
2025-04-15 10:28:36.700,184586,81019,57451,221014,170662
2025-04-15 10:28:36.707,184626,81058,57477,221055,170685
2025-04-15 10:28:36.719,184688,81073,57506,221052,170679
2025-04-15 10:28:36.728,184739,81094,57530,221111,170740
2025-04-15 10:28:36.740,184788,81132,57551,221135,170773
2025-04-15 10:28:36.759,184886,81128,57572,221130,170820
2025-04-15 10:28:36.761,184978,81153,57594,221224,170845
2025-04-15 10:28:36.767,185096,81171,57619,221215,170901
2025-04-15 10:28:36.779,185200,81175,57646,221342,170957
2025-04-15 10:28:36.791,185309,81211,57666,221396,171038
2025-04-15 10:28:36.799,185472,81253,57702,221456,171109
2025-04-15 10:28:36.828,185602,81275,57751,221551,171201
2025-04-15 10:28:36.829,185759,81322,57805,221660,171271
2025-04-15 10:28:36.831,185878,81358,57834,221724,171357
2025-04-15 10:28:36.840,186021,81405,57880,221835,171459
2025-04-15 10:28:36.851,186150,81450,57913,221937,171525
2025-04-15 10:28:36.860,186283,81509,57970,221982,171655
2025-04-15 10:28:36.871,186388,81555,58017,222078,171680
2025-04-15 10:28:36.896,186555,81613,58059,222129,171748
2025-04-15 10:28:36.898,186615,81643,58083,222222,171858
2025-04-15 10:28:36.899,186733,81681,58122,222252,171894
2025-04-15 10:28:36.911,186810,81721,58155,222327,171993
2025-04-15 10:28:36.919,186902,81751,58180,222390,172005
2025-04-15 10:28:36.931,187002,81762,58201,222427,172083
2025-04-15 10:28:36.940,187095,81802,58228,222474,172152
2025-04-15 10:28:36.964,187168,81825,58250,222531,172232
2025-04-15 10:28:36.965,187257,81865,58280,222608,172285
2025-04-15 10:28:36.971,187351,81885,58319,222669,172334
2025-04-15 10:28:36.979,187424,81945,58358,222713,172403
2025-04-15 10:28:36.991,187495,81969,58384,222705,172423
2025-04-15 10:28:36.999,187580,82000,58415,222782,172470
2025-04-15 10:28:37.012,187616,81989,58418,222778,172503
2025-04-15 10:28:37.030,187732,82025,58447,222823,172542
2025-04-15 10:28:37.032,187808,82040,58449,222818,172562
2025-04-15 10:28:37.042,187850,82083,58474,222891,172615
2025-04-15 10:28:37.044,187850,82083,58474,222891,172615
2025-04-15 10:28:37.051,187705,82115,58489,222518,172590
2025-04-15 10:28:37.060,187126,82080,58462,221908,172339
2025-04-15 10:28:37.071,185856,82014,58370,221168,171781
2025-04-15 10:28:37.079,183986,81905,58146,220564,171118
2025-04-15 10:28:37.098,182297,81746,57840,220003,170502
2025-04-15 10:28:37.103,180988,81525,57526,219492,169943
2025-04-15 10:28:37.111,180097,81305,57267,219050,169415
2025-04-15 10:28:37.123,179464,81008,57052,218666,168963
2025-04-15 10:28:37.131,179058,80757,56930,218449,168545
2025-04-15 10:28:37.143,178812,80524,56848,218325,168290
2025-04-15 10:28:37.168,178751,80350,56823,218278,168056
2025-04-15 10:28:37.169,178708,80146,56829,218292,167937
2025-04-15 10:28:37.171,178754,80045,56866,218336,167907
2025-04-15 10:28:37.183,178887,79943,56894,218365,167884
2025-04-15 10:28:37.191,178971,79860,56953,218433,167901
2025-04-15 10:28:37.203,179093,79795,56979,218474,167919
2025-04-15 10:28:37.211,179191,79768,57036,218525,167933
2025-04-15 10:28:37.239,179227,79725,57085,218535,167944
2025-04-15 10:28:37.240,179289,79662,57109,218599,167945
2025-04-15 10:28:37.243,179241,79647,57128,218607,167945
2025-04-15 10:28:37.251,179189,79594,57165,218653,167925
2025-04-15 10:28:37.263,179105,79512,57153,218684,167915
2025-04-15 10:28:37.271,179098,79451,57170,218687,167864
2025-04-15 10:28:37.283,179109,79381,57157,218738,167866
2025-04-15 10:28:37.305,179176,79323,57173,218748,167831
2025-04-15 10:28:37.306,179206,79282,57200,218645,167824
2025-04-15 10:28:37.312,179222,79244,57184,218558,167754
2025-04-15 10:28:37.323,179157,79206,57194,218409,167700
2025-04-15 10:28:37.330,179064,79150,57163,218269,167577
2025-04-15 10:28:37.342,178912,79117,57156,218091,167468
2025-04-15 10:28:37.351,178804,79081,57116,217983,167346
2025-04-15 10:28:37.373,178641,79013,57085,217868,167197
2025-04-15 10:28:37.375,178519,78951,57074,217775,167088
2025-04-15 10:28:37.383,178385,78907,57051,217709,166964
2025-04-15 10:28:37.395,178305,78849,57047,217666,166862
2025-04-15 10:28:37.402,178225,78785,57033,217682,166849
2025-04-15 10:28:37.415,178188,78743,57040,217769,166799
2025-04-15 10:28:37.439,178182,78698,57075,217829,166833
2025-04-15 10:28:37.440,178226,78682,57106,217886,166854
2025-04-15 10:28:37.443,178224,78645,57107,217895,166878
2025-04-15 10:28:37.455,178274,78592,57134,217925,166895
2025-04-15 10:28:37.463,178356,78555,57139,217949,166912
2025-04-15 10:28:37.474,178459,78549,57167,217981,166939
2025-04-15 10:28:37.483,178559,78571,57207,217993,166950
2025-04-15 10:28:37.506,178676,78585,57254,218058,166999
2025-04-15 10:28:37.508,178780,78613,57301,218152,167035
2025-04-15 10:28:37.515,178860,78676,57366,218248,167115
2025-04-15 10:28:37.523,178954,78713,57419,218378,167207
2025-04-15 10:28:37.535,179032,78738,57430,218470,167309
2025-04-15 10:28:37.543,179087,78759,57472,218599,167387
2025-04-15 10:28:37.555,179159,78786,57508,218722,167455
2025-04-15 10:28:37.575,179226,78809,57570,218833,167566
2025-04-15 10:28:37.577,179282,78820,57603,218986,167651
2025-04-15 10:28:37.583,179316,78869,57644,219160,167737
2025-04-15 10:28:37.595,179348,78854,57679,219249,167857
2025-04-15 10:28:37.603,179376,78830,57660,219375,167954
2025-04-15 10:28:37.615,179403,78784,57675,219480,167996
2025-04-15 10:28:37.622,179444,78700,57658,219534,168061
2025-04-15 10:28:37.641,179487,78681,57677,219579,168103
2025-04-15 10:28:37.643,179521,78640,57683,219575,168139
2025-04-15 10:28:37.655,179549,78630,57687,219541,168152
2025-04-15 10:28:37.663,179605,78587,57679,219578,168131
2025-04-15 10:28:37.675,179611,78590,57690,219581,168122
2025-04-15 10:28:37.683,179634,78598,57699,219578,168167
2025-04-15 10:28:37.708,179668,78568,57696,219535,168135
2025-04-15 10:28:37.710,179657,78561,57684,219531,168147
2025-04-15 10:28:37.715,179705,78548,57694,219494,168098
2025-04-15 10:28:37.726,179759,78552,57706,219499,168099
2025-04-15 10:28:37.735,179801,78561,57707,219493,168122
2025-04-15 10:28:37.747,179865,78578,57706,219465,168109
2025-04-15 10:28:37.755,179914,78560,57740,219460,168159
2025-04-15 10:28:37.781,179985,78579,57742,219503,168202
2025-04-15 10:28:37.783,180080,78591,57742,219541,168206
2025-04-15 10:28:37.787,180154,78618,57766,219584,168283
2025-04-15 10:28:37.796,180273,78631,57806,219627,168321
2025-04-15 10:28:37.807,180397,78652,57834,219660,168368
2025-04-15 10:28:37.815,180512,78710,57876,219693,168444
2025-04-15 10:28:37.826,180637,78749,57915,219722,168493
2025-04-15 10:28:37.853,180748,78811,57938,219703,168505
2025-04-15 10:28:37.855,180867,78854,57960,219755,168564
2025-04-15 10:28:37.856,181018,78889,57974,219775,168604
2025-04-15 10:28:37.867,181154,78916,57996,219837,168679
2025-04-15 10:28:37.875,181296,78968,58039,219855,168733
2025-04-15 10:28:37.887,181409,78983,58056,219907,168800
2025-04-15 10:28:37.894,181608,79027,58096,219957,168887
2025-04-15 10:28:37.919,181747,79093,58112,220025,168923
2025-04-15 10:28:37.920,181892,79120,58157,220057,168990
2025-04-15 10:28:37.926,182036,79189,58203,220107,169087
2025-04-15 10:28:37.935,182194,79228,58222,220198,169150
2025-04-15 10:28:37.946,182294,79301,58264,220293,169220
2025-04-15 10:28:37.954,182417,79343,58308,220373,169307
2025-04-15 10:28:37.966,182531,79382,58345,220430,169394
2025-04-15 10:28:37.987,182613,79456,58380,220500,169478
2025-04-15 10:28:37.988,182721,79524,58424,220565,169543
2025-04-15 10:28:37.995,182828,79566,58464,220606,169612
2025-04-15 10:28:38.007,182920,79607,58491,220634,169654
2025-04-15 10:28:38.019,183007,79661,58537,220680,169699
2025-04-15 10:28:38.026,183071,79723,58556,220707,169759
2025-04-15 10:28:38.054,183103,79774,58589,220699,169797
2025-04-15 10:28:38.055,182869,79800,58585,220512,169775
2025-04-15 10:28:38.056,182869,79800,58585,220512,169775
2025-04-15 10:28:38.057,181043,79694,58321,219511,169209
2025-04-15 10:28:38.066,179848,79533,58030,218942,168688
2025-04-15 10:28:38.078,178847,79297,57703,218434,168108
2025-04-15 10:28:38.086,178072,79027,57444,217970,167589
2025-04-15 10:28:38.099,177410,78707,57219,217610,167067
2025-04-15 10:28:38.119,176876,78364,57020,217287,166660
2025-04-15 10:28:38.120,176455,78007,56856,217052,166270
2025-04-15 10:28:38.126,176180,77729,56733,216880,165948
2025-04-15 10:28:38.139,175962,77441,56649,216746,165699
2025-04-15 10:28:38.146,175839,77261,56576,216657,165538
2025-04-15 10:28:38.158,175773,77107,56557,216644,165428
2025-04-15 10:28:38.166,175777,76978,56555,216688,165348
2025-04-15 10:28:38.185,175787,76889,56539,216716,165315
2025-04-15 10:28:38.186,175818,76812,56527,216750,165343
2025-04-15 10:28:38.198,175851,76755,56509,216732,165315
2025-04-15 10:28:38.206,175859,76684,56482,216722,165308
2025-04-15 10:28:38.218,175833,76616,56479,216658,165313
2025-04-15 10:28:38.226,175794,76562,56428,216634,165256
2025-04-15 10:28:38.251,175733,76491,56397,216555,165198
2025-04-15 10:28:38.252,175632,76442,56374,216478,165105
2025-04-15 10:28:38.259,175563,76383,56346,216410,165064
2025-04-15 10:28:38.267,175576,76347,56324,216337,164994
2025-04-15 10:28:38.278,175559,76310,56294,216310,164964
2025-04-15 10:28:38.286,175648,76289,56286,216296,164921
2025-04-15 10:28:38.298,175660,76260,56283,216247,164899
2025-04-15 10:28:38.319,175651,76255,56265,216186,164898
2025-04-15 10:28:38.320,175609,76209,56257,216121,164844
2025-04-15 10:28:38.331,175532,76166,56224,216050,164796
2025-04-15 10:28:38.339,175431,76136,56185,215967,164761
2025-04-15 10:28:38.351,175342,76063,56140,215873,164647
2025-04-15 10:28:38.358,175257,76029,56103,215777,164584
2025-04-15 10:28:38.386,175161,75980,56062,215770,164521
2025-04-15 10:28:38.387,175106,75942,56059,215728,164447
2025-04-15 10:28:38.390,175067,75895,56015,215696,164398
2025-04-15 10:28:38.399,175032,75849,56015,215645,164369
2025-04-15 10:28:38.410,175061,75848,55999,215685,164329
2025-04-15 10:28:38.418,175085,75816,55999,215697,164365
2025-04-15 10:28:38.430,175118,75817,56028,215738,164347
2025-04-15 10:28:38.454,175181,75820,56040,215836,164384
2025-04-15 10:28:38.455,175264,75841,56065,215851,164422
2025-04-15 10:28:38.458,175371,75882,56112,215916,164493
2025-04-15 10:28:38.470,175454,75925,56129,216024,164553
2025-04-15 10:28:38.478,175584,75931,56165,216093,164645
2025-04-15 10:28:38.490,175666,75979,56209,216210,164744
2025-04-15 10:28:38.498,175764,76013,56237,216245,164816
2025-04-15 10:28:38.522,175897,76070,56280,216318,164841
2025-04-15 10:28:38.523,175899,76101,56302,216403,164941
2025-04-15 10:28:38.529,176106,76142,56352,216492,165025
2025-04-15 10:28:38.539,176078,76202,56364,216560,165072
2025-04-15 10:28:38.550,176197,76220,56412,216662,165152
2025-04-15 10:28:38.558,176375,76288,56442,216728,165217
2025-04-15 10:28:38.570,176287,76342,56475,216798,165312
2025-04-15 10:28:38.589,176495,76368,56508,216848,165367
2025-04-15 10:28:38.590,176466,76429,56555,216940,165417
2025-04-15 10:28:38.599,176510,76477,56572,217010,165485
2025-04-15 10:28:38.610,176556,76497,56602,217083,165548
2025-04-15 10:28:38.621,176601,76553,56631,217082,165583
2025-04-15 10:28:38.630,176608,76578,56661,217105,165623
2025-04-15 10:28:38.655,176613,76605,56646,217148,165684
2025-04-15 10:28:38.657,176627,76683,56658,217173,165660
2025-04-15 10:28:38.662,176678,76569,56690,217180,165677
2025-04-15 10:28:38.670,176718,76714,56694,217179,165689
2025-04-15 10:28:38.682,176762,76748,56734,217209,165714
2025-04-15 10:28:38.690,176779,76651,56752,217229,165734
2025-04-15 10:28:38.702,176841,76847,56781,217240,165766
2025-04-15 10:28:38.720,176870,76769,56782,217254,165770
2025-04-15 10:28:38.722,176906,76793,56792,217235,165790
2025-04-15 10:28:38.731,176974,76803,56787,217260,165815
2025-04-15 10:28:38.742,177049,76836,56805,217292,165836
2025-04-15 10:28:38.751,177097,76844,56845,217333,165869
2025-04-15 10:28:38.761,177198,76882,56847,217353,165926
2025-04-15 10:28:38.787,177251,76912,56915,217368,165965
2025-04-15 10:28:38.789,177381,76962,56869,217408,166014
2025-04-15 10:28:38.790,177462,76993,57016,217439,166054
2025-04-15 10:28:38.802,177570,77060,56919,217473,166093
2025-04-15 10:28:38.810,177645,77064,56923,217524,166140
2025-04-15 10:28:38.823,177754,77081,57073,217573,166185
2025-04-15 10:28:38.830,177859,77120,56954,217598,166245
2025-04-15 10:28:38.853,177981,77164,57073,217634,166320
2025-04-15 10:28:38.855,178113,77205,57073,217682,166408
2025-04-15 10:28:38.856,178113,77205,57073,217682,166408
2025-04-15 10:28:38.861,178352,77274,57128,217760,166473
2025-04-15 10:28:38.870,178492,77326,57175,217750,166552
2025-04-15 10:28:38.882,178582,77332,57168,217788,166600
2025-04-15 10:28:38.890,178713,77394,57224,217875,166644
2025-04-15 10:28:38.901,178824,77433,57243,217926,166720
2025-04-15 10:28:38.921,178956,77511,57296,218015,166793
2025-04-15 10:28:38.923,179053,77574,57347,218056,166875
2025-04-15 10:28:38.934,179116,77615,57379,218142,166928
2025-04-15 10:28:38.942,179213,77660,57403,218183,167006
2025-04-15 10:28:38.954,179291,77708,57431,218204,167074
2025-04-15 10:28:38.962,179422,77749,57459,218248,167116
2025-04-15 10:28:38.987,179489,77807,57499,218291,167202
2025-04-15 10:28:38.988,179587,77860,57539,218335,167252
2025-04-15 10:28:38.994,179689,77932,57573,218378,167300
2025-04-15 10:28:39.002,179770,77969,57596,218445,167358
2025-04-15 10:28:39.014,179897,78044,57653,218494,167436
2025-04-15 10:28:39.021,180010,78104,57687,218586,167472
2025-04-15 10:28:39.034,180081,78189,57749,218560,167550
2025-04-15 10:28:39.054,180148,78241,57763,218678,167625
2025-04-15 10:28:39.056,180133,78285,57770,218534,167641
2025-04-15 10:28:39.062,179922,78266,57747,218233,167605
2025-04-15 10:28:39.075,179312,78235,57656,217963,167418
2025-04-15 10:28:39.082,178373,78143,57468,217262,167068
2025-04-15 10:28:39.094,177366,77994,57186,216842,166519
2025-04-15 10:28:39.101,176526,77758,56906,216363,166012
2025-04-15 10:28:39.126,175835,77483,56689,215986,165539
2025-04-15 10:28:39.127,175239,77185,56483,215635,165103
2025-04-15 10:28:39.135,174741,76865,56341,215426,164665
2025-04-15 10:28:39.142,174385,76549,56177,215191,164362
2025-04-15 10:28:39.154,174109,76298,56098,215077,164134
2025-04-15 10:28:39.161,173889,76086,56020,214998,163881
2025-04-15 10:28:39.174,173808,75952,55997,215011,163895
2025-04-15 10:28:39.196,173738,75826,55971,215000,163649
2025-04-15 10:28:39.197,173749,75710,55971,215065,163711
2025-04-15 10:28:39.202,173766,75627,55959,215107,163757
2025-04-15 10:28:39.214,173810,75616,55996,215174,163645
2025-04-15 10:28:39.221,173839,75574,56009,215266,163843
2025-04-15 10:28:39.234,173894,75589,56012,215327,163791
2025-04-15 10:28:39.242,173931,75584,56010,215416,163874
2025-04-15 10:28:39.262,173923,75581,56041,215472,163897
2025-04-15 10:28:39.265,173907,75584,56048,215491,163925
2025-04-15 10:28:39.274,173903,75599,56028,215509,163929
2025-04-15 10:28:39.285,173894,75558,56037,215510,163936
2025-04-15 10:28:39.294,173950,75580,56060,215546,163918
2025-04-15 10:28:39.306,173967,75595,56066,215590,163981
2025-04-15 10:28:39.328,174051,75608,56074,215576,164006
2025-04-15 10:28:39.329,173994,75574,56076,215550,164001
2025-04-15 10:28:39.334,173956,75553,56031,215422,163949
2025-04-15 10:28:39.346,173816,75496,55982,215353,163873
2025-04-15 10:28:39.353,173737,75449,55940,215259,163796
2025-04-15 10:28:39.365,173598,75408,55891,215183,163717
2025-04-15 10:28:39.374,173520,75336,55857,215170,163638
2025-04-15 10:28:39.394,173382,75290,55818,215080,163580
2025-04-15 10:28:39.395,173299,75248,55796,215081,163502
2025-04-15 10:28:39.405,173211,75202,55800,215065,163468
2025-04-15 10:28:39.413,173192,75173,55783,215086,163434
2025-04-15 10:28:39.426,173144,75150,55799,215144,163429
2025-04-15 10:28:39.433,173186,75162,55850,215258,163452
2025-04-15 10:28:39.459,173233,75228,55892,215362,163513
2025-04-15 10:28:39.461,173320,75277,55973,215585,163586
2025-04-15 10:28:39.465,173405,75364,56054,215761,163695
2025-04-15 10:28:39.473,173510,75460,56151,216023,163806
2025-04-15 10:28:39.486,173614,75576,56241,216266,163978
2025-04-15 10:28:39.494,173754,75675,56347,216576,164133
2025-04-15 10:28:39.505,173848,75790,56445,216827,164303
2025-04-15 10:28:39.524,173928,75911,56521,217135,164483
2025-04-15 10:28:39.526,174077,75998,56659,217404,164644
2025-04-15 10:28:39.537,174191,76118,56751,217722,164818
2025-04-15 10:28:39.545,174282,76209,56827,217958,164983
2025-04-15 10:28:39.557,174386,76303,56930,218225,165132
2025-04-15 10:28:39.566,174476,76353,57010,218495,165259
2025-04-15 10:28:39.591,174562,76424,57102,218741,165383
2025-04-15 10:28:39.592,174608,76484,57185,218897,165519
2025-04-15 10:28:39.598,174694,76555,57242,219008,165584
2025-04-15 10:28:39.605,174740,76638,57309,219269,165639
2025-04-15 10:28:39.617,174798,76693,57379,219525,165775
2025-04-15 10:28:39.625,174806,76717,57422,219634,165860
2025-04-15 10:28:39.637,174805,76733,57434,219667,165880
2025-04-15 10:28:39.658,174706,76720,57433,219719,165853
2025-04-15 10:28:39.660,174657,76725,57453,219820,165831
2025-04-15 10:28:39.665,174558,76704,57461,219829,165816
2025-04-15 10:28:39.677,174431,76661,57411,219850,165798
2025-04-15 10:28:39.685,174264,76610,57392,219855,165748
2025-04-15 10:28:39.698,174167,76561,57344,219825,165687
2025-04-15 10:28:39.705,173985,76478,57299,219809,165607
2025-04-15 10:28:39.724,173868,76444,57281,219821,165573
2025-04-15 10:28:39.725,173699,76374,57235,219833,165536
2025-04-15 10:28:39.738,173608,76354,57229,219866,165474
2025-04-15 10:28:39.745,173482,76314,57229,219882,165424
2025-04-15 10:28:39.758,173391,76299,57209,219968,165407
2025-04-15 10:28:39.765,173269,76298,57223,220035,165407
2025-04-15 10:28:39.793,173196,76309,57252,220198,165411
2025-04-15 10:28:39.794,173144,76350,57352,220431,165498
2025-04-15 10:28:39.797,173146,76453,57444,220707,165578
2025-04-15 10:28:39.806,173064,76516,57537,220945,165685
2025-04-15 10:28:39.818,173041,76628,57618,221190,165781
2025-04-15 10:28:39.825,172905,76659,57669,221399,165868
2025-04-15 10:28:39.838,172873,76719,57729,221631,165904
2025-04-15 10:28:39.859,172756,76772,57806,221964,166016
2025-04-15 10:28:39.861,172693,76868,57898,222380,166205
2025-04-15 10:28:39.862,172693,76868,57898,222380,166205
2025-04-15 10:28:39.870,172542,77043,58065,223257,166522
2025-04-15 10:28:39.877,172391,77099,58105,223554,166723
2025-04-15 10:28:39.889,172232,77087,58070,223676,166837
2025-04-15 10:28:39.897,171957,76950,57963,223707,166811
2025-04-15 10:28:39.929,171700,76839,57851,223700,166713
2025-04-15 10:28:39.931,171392,76737,57768,223696,166647
2025-04-15 10:28:39.932,171137,76655,57693,223634,166620
2025-04-15 10:28:39.937,170887,76570,57601,223589,166525
2025-04-15 10:28:39.950,170717,76572,57544,223438,166417
2025-04-15 10:28:39.958,170544,76765,57433,223562,166408
2025-04-15 10:28:39.969,170402,76509,57140,223436,164257
2025-04-15 10:28:39.978,170310,76514,57513,223418,166201
2025-04-15 10:28:40.002,170243,76558,57426,223492,166175
2025-04-15 10:28:40.003,170190,76631,57484,223509,166156
2025-04-15 10:28:40.010,170173,76670,57538,223595,166127
2025-04-15 10:28:40.017,170144,76751,57624,223942,166061
2025-04-15 10:28:40.030,170144,76841,57759,223970,166034
2025-04-15 10:28:40.038,170137,77063,57999,224703,166072
2025-04-15 10:28:40.049,170078,77504,58356,226270,166250
2025-04-15 10:28:40.071,169864,78057,58938,228661,166929
2025-04-15 10:28:40.072,169459,78841,59720,232497,167967
2025-04-15 10:28:40.077,168362,79798,60605,237829,169610
2025-04-15 10:28:40.089,166087,80729,61795,246763,171865
2025-04-15 10:28:40.097,161725,81928,64034,260073,175365
2025-04-15 10:28:40.109,157507,92261,69923,286984,180273
2025-04-15 10:28:40.138,205712,123629,90698,319846,202606
2025-04-15 10:28:40.140,238083,156493,123641,352464,237899
2025-04-15 10:28:40.141,270305,163911,126287,327680,214113
2025-04-15 10:28:40.150,245888,131456,98752,294912,196480
2025-04-15 10:28:40.161,213056,98752,65920,262144,164224
2025-04-15 10:28:40.169,180352,65920,36434,229568,131456
2025-04-15 10:28:40.181,147968,34836,25133,196480,98752
2025-04-15 10:28:40.206,115072,25430,17843,164224,65920
2025-04-15 10:28:40.207,82368,19131,13074,131456,32960
2025-04-15 10:28:40.209,49344,14549,9660,98752,17528
2025-04-15 10:28:40.221,23690,11042,7101,65920,13367
2025-04-15 10:28:40.228,17687,8412,5212,32960,10103
2025-04-15 10:28:40.241,13112,6416,3811,11730,7620
2025-04-15 10:28:40.249,9631,4974,2786,8835,5734
2025-04-15 10:28:40.271,7028,3906,2034,6646,4325
2025-04-15 10:28:40.272,5035,3041,1443,4907,3263
2025-04-15 10:28:40.277,3460,2472,978,3580,2431
2025-04-15 10:28:40.288,2353,2075,661,2600,1764
2025-04-15 10:28:40.297,1577,1762,429,1922,1297
2025-04-15 10:28:40.309,1031,1578,253,1421,970
2025-04-15 10:28:40.317,663,1367,131,1079,714
2025-04-15 10:28:40.337,439,1252,47,815,524
2025-04-15 10:28:40.338,288,1039,1,622,404
2025-04-15 10:28:40.348,201,762,0,458,289
2025-04-15 10:28:40.357,122,607,0,329,207
2025-04-15 10:28:40.369,79,345,0,210,131
2025-04-15 10:28:40.377,36,217,0,116,59
2025-04-15 10:28:40.405,6,121,0,39,4
2025-04-15 10:28:40.407,0,18,0,0,0
2025-04-15 10:28:40.409,0,0,0,0,0
2025-04-15 10:28:40.416,0,0,0,0,0
2025-04-15 10:28:40.429,0,0,0,0,0
2025-04-15 10:28:40.437,0,0,0,0,0
2025-04-15 10:28:40.449,0,0,9,0,0
2025-04-15 10:28:40.470,0,0,0,0,0
2025-04-15 10:28:40.472,0,0,0,0,0
2025-04-15 10:28:40.476,5,0,0,0,0
2025-04-15 10:28:40.489,24,0,0,0,0
2025-04-15 10:28:40.497,46,0,0,0,0
2025-04-15 10:28:40.509,65,31,0,0,0
2025-04-15 10:28:40.537,85,50,0,0,0
2025-04-15 10:28:40.539,119,91,0,0,0
2025-04-15 10:28:40.541,144,122,0,15,0
2025-04-15 10:28:40.548,141,139,30,48,0
2025-04-15 10:28:40.560,142,145,34,65,26
2025-04-15 10:28:40.570,140,143,39,67,41
2025-04-15 10:28:40.581,140,146,42,101,48
2025-04-15 10:28:40.603,140,141,64,97,78
2025-04-15 10:28:40.605,144,146,73,94,101
2025-04-15 10:28:40.609,145,151,98,121,103
2025-04-15 10:28:40.621,142,137,97,99,103
2025-04-15 10:28:40.629,132,143,121,99,100
2025-04-15 10:28:40.641,144,134,118,79,96
2025-04-15 10:28:40.649,136,145,129,32,101
2025-04-15 10:28:40.670,129,127,134,74,99
2025-04-15 10:28:40.671,129,127,134,74,99
2025-04-15 10:28:40.673,135,129,135,115,100
2025-04-15 10:28:40.681,111,131,124,181,100
2025-04-15 10:28:40.692,118,122,135,142,93
2025-04-15 10:28:40.701,110,113,120,202,99
2025-04-15 10:28:40.713,97,106,127,119,72
2025-04-15 10:28:40.737,91,105,111,86,81
2025-04-15 10:28:40.739,85,96,103,49,91
2025-04-15 10:28:40.741,61,85,98,0,70
2025-04-15 10:28:40.749,60,65,79,0,85
2025-04-15 10:28:40.761,55,62,72,0,57
2025-04-15 10:28:40.773,55,70,61,0,16
2025-04-15 10:28:40.780,42,56,58,0,20
2025-04-15 10:28:40.805,56,64,61,0,0
2025-04-15 10:28:40.807,50,73,50,0,12
2025-04-15 10:28:40.812,51,69,63,0,62
2025-04-15 10:28:40.821,49,75,68,0,67
2025-04-15 10:28:40.832,59,85,59,0,141
2025-04-15 10:28:40.841,44,74,59,0,56
2025-04-15 10:28:40.853,70,60,63,0,93
2025-04-15 10:28:40.873,47,53,52,19,32
2025-04-15 10:28:40.874,53,66,64,15,0
2025-04-15 10:28:40.881,66,67,56,34,0
2025-04-15 10:28:40.892,62,70,75,46,0
2025-04-15 10:28:40.900,51,52,76,56,0
2025-04-15 10:28:40.912,56,71,60,57,0
2025-04-15 10:28:40.920,56,58,70,51,0
2025-04-15 10:28:40.939,65,72,69,64,0
2025-04-15 10:28:40.941,64,92,68,67,0
2025-04-15 10:28:40.953,63,69,75,70,0
2025-04-15 10:28:40.960,45,71,69,71,0
2025-04-15 10:28:40.972,66,76,59,75,0
2025-04-15 10:28:40.981,68,92,66,68,0
2025-04-15 10:28:41.006,58,74,45,67,0
2025-04-15 10:28:41.008,61,94,62,70,7
2025-04-15 10:28:41.013,57,86,56,71,30
2025-04-15 10:28:41.024,50,90,63,81,37
2025-04-15 10:28:41.032,73,65,57,68,42
2025-04-15 10:28:41.044,50,89,69,74,49
2025-04-15 10:28:41.053,86,79,50,68,51
2025-04-15 10:28:41.075,50,80,73,75,62
2025-04-15 10:28:41.077,74,81,76,75,62
2025-04-15 10:28:41.084,64,103,66,66,65
2025-04-15 10:28:41.092,83,85,72,75,64
2025-04-15 10:28:41.105,77,78,73,73,71
2025-04-15 10:28:41.113,110,107,73,71,61
2025-04-15 10:28:41.143,90,111,63,84,74
2025-04-15 10:28:41.145,103,100,84,91,71
2025-04-15 10:28:41.146,87,110,97,82,77
2025-04-15 10:28:41.153,109,122,91,94,77
2025-04-15 10:28:41.165,137,123,81,91,84
2025-04-15 10:28:41.173,121,120,101,107,87
2025-04-15 10:28:41.185,138,138,77,110,79
2025-04-15 10:28:41.192,153,144,110,123,91
2025-04-15 10:28:41.212,152,122,96,118,87
2025-04-15 10:28:41.214,186,139,85,118,97
2025-04-15 10:28:41.224,161,161,114,124,90
2025-04-15 10:28:41.236,202,140,120,122,107
2025-04-15 10:28:41.245,192,171,133,140,110
2025-04-15 10:28:41.256,212,161,139,152,115
2025-04-15 10:28:41.280,146,175,151,152,114
2025-04-15 10:28:41.281,180,169,123,152,133
2025-04-15 10:28:41.285,199,161,121,177,133
2025-04-15 10:28:41.296,157,162,119,177,154
2025-04-15 10:28:41.304,154,156,150,161,150
2025-04-15 10:28:41.316,162,153,135,163,163
2025-04-15 10:28:41.325,167,125,107,187,160
2025-04-15 10:28:41.350,121,145,107,158,179
2025-04-15 10:28:41.351,122,142,83,157,158
2025-04-15 10:28:41.356,120,131,67,164,155
2025-04-15 10:28:41.365,105,144,78,150,147
2025-04-15 10:28:41.376,110,118,75,137,140
2025-04-15 10:28:41.385,104,76,72,105,112
2025-04-15 10:28:41.396,95,105,63,109,86
2025-04-15 10:28:41.416,89,110,45,114,86
2025-04-15 10:28:41.417,77,64,49,96,95
2025-04-15 10:28:41.425,57,64,50,86,70
2025-04-15 10:28:41.436,45,81,26,100,76
2025-04-15 10:28:41.444,72,45,16,103,64
2025-04-15 10:28:41.456,42,50,17,71,77
2025-04-15 10:28:41.464,35,6,25,68,68
2025-04-15 10:28:41.482,26,24,7,68,58
2025-04-15 10:28:41.484,40,11,7,72,45
2025-04-15 10:28:41.496,19,26,0,50,40
2025-04-15 10:28:41.504,13,12,8,26,34
2025-04-15 10:28:41.516,48,2,0,32,34
2025-04-15 10:28:41.524,74,35,0,20,13
2025-04-15 10:28:41.548,81,35,1,0,16
2025-04-15 10:28:41.549,126,71,0,23,0
2025-04-15 10:28:41.557,87,74,49,24,0
2025-04-15 10:28:41.564,117,90,35,58,0
2025-04-15 10:28:41.576,108,105,53,63,11
2025-04-15 10:28:41.585,97,102,78,83,34
2025-04-15 10:28:41.596,111,95,92,95,58
2025-04-15 10:28:41.613,127,102,32,105,70
2025-04-15 10:28:41.616,106,105,65,101,79
2025-04-15 10:28:41.629,112,92,94,87,86
2025-04-15 10:28:41.636,99,108,51,95,60
2025-04-15 10:28:41.647,131,130,56,111,92
2025-04-15 10:28:41.656,118,127,80,100,102
2025-04-15 10:28:41.679,135,105,99,118,59
2025-04-15 10:28:41.680,135,105,99,118,59
2025-04-15 10:28:41.682,134,115,89,102,79
2025-04-15 10:28:41.688,110,112,89,130,83
2025-04-15 10:28:41.696,97,93,108,112,101
2025-04-15 10:28:41.708,84,87,81,137,126
2025-04-15 10:28:41.717,91,70,66,83,96
2025-04-15 10:28:41.728,92,84,59,126,104
2025-04-15 10:28:41.746,100,79,46,118,83
2025-04-15 10:28:41.748,97,94,65,92,75
2025-04-15 10:28:41.756,82,75,69,78,42
2025-04-15 10:28:41.768,80,84,72,82,51
2025-04-15 10:28:41.777,97,87,55,93,62
2025-04-15 10:28:41.788,79,79,49,79,51
2025-04-15 10:28:41.812,66,96,65,83,67
2025-04-15 10:28:41.813,76,59,44,88,73
2025-04-15 10:28:41.816,82,79,68,81,65
2025-04-15 10:28:41.829,82,82,53,90,41
2025-04-15 10:28:41.836,73,72,50,87,64
2025-04-15 10:28:41.848,75,56,50,78,57
2025-04-15 10:28:41.856,75,69,49,78,69
2025-04-15 10:28:41.879,63,72,48,50,42
2025-04-15 10:28:41.881,65,75,58,59,77
2025-04-15 10:28:41.888,68,75,37,61,42
2025-04-15 10:28:41.896,56,68,83,45,57
2025-04-15 10:28:41.908,50,58,44,37,39
2025-04-15 10:28:41.920,63,84,38,62,77
2025-04-15 10:28:41.949,62,76,49,77,43
2025-04-15 10:28:41.950,62,77,64,66,50
2025-04-15 10:28:41.952,54,79,54,71,71
2025-04-15 10:28:41.960,51,70,33,91,51
2025-04-15 10:28:41.967,51,73,53,61,49
2025-04-15 10:28:41.981,41,62,42,54,63
2025-04-15 10:28:41.988,52,71,60,56,35
2025-04-15 10:28:42.017,44,67,49,47,64
2025-04-15 10:28:42.019,53,62,38,62,12
2025-04-15 10:28:42.020,40,54,53,70,18
2025-04-15 10:28:42.028,44,56,55,56,45
2025-04-15 10:28:42.040,31,80,51,45,31
2025-04-15 10:28:42.048,49,70,37,44,57
2025-04-15 10:28:42.060,50,66,61,41,31
2025-04-15 10:28:42.085,37,58,44,59,61
2025-04-15 10:28:42.087,37,63,41,58,54
2025-04-15 10:28:42.088,34,47,44,49,43
2025-04-15 10:28:42.100,32,48,52,59,48
2025-04-15 10:28:42.108,38,52,46,47,33
2025-04-15 10:28:42.120,30,45,38,44,42
2025-04-15 10:28:42.128,27,38,38,30,24
2025-04-15 10:28:42.156,29,56,38,55,36
2025-04-15 10:28:42.157,39,40,34,23,59
2025-04-15 10:28:42.160,34,30,32,29,42
2025-04-15 10:28:42.168,25,38,23,22,57
2025-04-15 10:28:42.180,32,44,33,37,40
2025-04-15 10:28:42.192,32,32,19,40,24
2025-04-15 10:28:42.200,29,39,26,58,28
2025-04-15 10:28:42.225,26,44,30,38,37
2025-04-15 10:28:42.227,31,22,19,35,33
2025-04-15 10:28:42.232,28,30,20,14,30
2025-04-15 10:28:42.240,26,41,14,26,25
2025-04-15 10:28:42.251,29,22,36,27,23
2025-04-15 10:28:42.259,32,34,31,33,30
2025-04-15 10:28:42.272,22,19,35,53,9
2025-04-15 10:28:42.294,28,43,32,34,44
2025-04-15 10:28:42.296,24,33,26,39,18
2025-04-15 10:28:42.300,24,28,40,44,25
2025-04-15 10:28:42.311,24,28,35,40,38
2025-04-15 10:28:42.320,25,30,43,47,50
2025-04-15 10:28:42.332,21,35,42,50,20
2025-04-15 10:28:42.339,28,51,35,47,42
2025-04-15 10:28:42.364,33,42,50,40,30
2025-04-15 10:28:42.365,26,30,40,48,33
2025-04-15 10:28:42.371,30,35,30,33,33
2025-04-15 10:28:42.380,24,32,36,39,37
2025-04-15 10:28:42.391,10,33,34,50,49
2025-04-15 10:28:42.400,24,28,32,40,56
2025-04-15 10:28:42.411,12,34,46,29,38
2025-04-15 10:28:42.434,21,29,35,39,40
2025-04-15 10:28:42.435,31,27,39,31,19
2025-04-15 10:28:42.440,16,21,25,39,25
2025-04-15 10:28:42.452,43,26,35,30,36
2025-04-15 10:28:42.464,13,27,37,27,41
2025-04-15 10:28:42.472,0,28,39,24,36
2025-04-15 10:28:42.476,0,28,39,24,36
2025-04-15 10:28:42.503,0,33,28,27,23
2025-04-15 10:28:42.505,0,23,26,33,21
2025-04-15 10:28:42.506,71,26,24,37,36
2025-04-15 10:28:42.512,69,21,33,15,40
2025-04-15 10:28:42.524,153,12,29,40,39
2025-04-15 10:28:42.531,88,24,30,37,27
2025-04-15 10:28:42.543,94,25,30,35,24
2025-04-15 10:28:42.552,47,14,34,40,35
2025-04-15 10:28:42.574,0,40,27,31,28
2025-04-15 10:28:42.576,0,21,33,47,19
2025-04-15 10:28:42.584,0,10,28,34,22
2025-04-15 10:28:42.592,0,11,32,30,20
2025-04-15 10:28:42.603,0,0,21,34,23
2025-04-15 10:28:42.611,0,0,32,36,23
2025-04-15 10:28:42.644,0,6,25,29,18
2025-04-15 10:28:42.645,0,33,34,26,22
2025-04-15 10:28:42.647,0,130,19,29,24
2025-04-15 10:28:42.651,0,87,22,29,25
2025-04-15 10:28:42.664,0,135,19,25,13
2025-04-15 10:28:42.672,0,92,16,46,30
2025-04-15 10:28:42.683,22,5,46,46,28
2025-04-15 10:28:42.691,27,9,37,35,20
2025-04-15 10:28:42.715,54,0,54,37,37
2025-04-15 10:28:42.717,55,0,44,43,42
2025-04-15 10:28:42.724,68,0,0,51,23
2025-04-15 10:28:42.732,77,0,17,53,42
2025-04-15 10:28:42.743,70,0,0,54,41
2025-04-15 10:28:42.752,59,0,24,53,40
2025-04-15 10:28:42.763,55,0,82,57,43
2025-04-15 10:28:42.788,56,0,73,44,46
2025-04-15 10:28:42.790,57,0,122,27,58
2025-04-15 10:28:42.796,50,0,100,35,46
2025-04-15 10:28:42.803,59,0,68,28,42
2025-04-15 10:28:42.816,41,0,41,23,24
2025-04-15 10:28:42.823,45,19,0,13,24
2025-04-15 10:28:42.836,38,16,0,21,26
2025-04-15 10:28:42.860,16,12,0,12,32
2025-04-15 10:28:42.862,15,6,0,5,12
2025-04-15 10:28:42.864,0,1,0,3,13
2025-04-15 10:28:42.875,0,0,0,0,3
2025-04-15 10:28:42.884,0,0,0,0,0
2025-04-15 10:28:42.896,0,0,0,0,0
2025-04-15 10:28:42.904,0,0,0,0,0
2025-04-15 10:28:42.930,16,1,0,0,0
2025-04-15 10:28:42.931,55,25,0,0,0
2025-04-15 10:28:42.936,57,57,0,0,0
2025-04-15 10:28:42.944,67,54,17,0,0
2025-04-15 10:28:42.955,65,67,19,16,0
2025-04-15 10:28:42.963,60,58,38,26,0
2025-04-15 10:28:42.975,71,71,42,22,11
2025-04-15 10:28:43.002,76,80,63,0,16
2025-04-15 10:28:43.004,88,77,68,0,23
2025-04-15 10:28:43.006,90,78,81,0,24
2025-04-15 10:28:43.017,101,89,81,7,37
2025-04-15 10:28:43.028,107,101,92,84,34
2025-04-15 10:28:43.035,121,109,104,98,40
2025-04-15 10:28:43.047,110,119,117,172,48
2025-04-15 10:28:43.072,99,112,117,144,39
2025-04-15 10:28:43.074,93,96,108,132,58
2025-04-15 10:28:43.076,71,89,102,112,66
2025-04-15 10:28:43.087,61,84,83,0,73
2025-04-15 10:28:43.095,54,72,80,0,94
2025-04-15 10:28:43.108,49,60,68,0,78
2025-04-15 10:28:43.115,53,67,51,0,42
2025-04-15 10:28:43.139,53,57,70,0,25
2025-04-15 10:28:43.141,60,61,64,0,0
2025-04-15 10:28:43.148,47,65,61,0,0
2025-04-15 10:28:43.155,43,62,66,0,0
2025-04-15 10:28:43.167,43,53,63,0,35
2025-04-15 10:28:43.175,53,56,63,0,99
2025-04-15 10:28:43.187,62,65,55,0,79
2025-04-15 10:28:43.208,42,58,62,0,107
2025-04-15 10:28:43.210,32,55,51,13,86
2025-04-15 10:28:43.215,52,44,53,14,0
2025-04-15 10:28:43.227,64,56,58,43,0
2025-04-15 10:28:43.235,53,55,52,38,0
2025-04-15 10:28:43.248,56,45,56,53,0
2025-04-15 10:28:43.255,51,54,60,44,0
2025-04-15 10:28:43.274,39,43,62,52,0
2025-04-15 10:28:43.279,59,58,59,61,0
2025-04-15 10:28:43.280,59,58,59,61,0
2025-04-15 10:28:43.287,62,64,71,64,0
2025-04-15 10:28:43.295,63,77,76,63,0
2025-04-15 10:28:43.307,87,99,72,67,0
2025-04-15 10:28:43.314,95,93,75,82,0
2025-04-15 10:28:43.342,85,104,80,78,4
2025-04-15 10:28:43.343,112,116,110,115,12
2025-04-15 10:28:43.347,124,114,126,120,52
2025-04-15 10:28:43.359,103,115,134,132,64
2025-04-15 10:28:43.366,114,102,121,131,92
2025-04-15 10:28:43.379,104,105,118,130,118
2025-04-15 10:28:43.387,73,111,131,128,118
2025-04-15 10:28:43.408,61,102,121,133,117
2025-04-15 10:28:43.409,36,63,72,103,121
2025-04-15 10:28:43.420,0,44,68,86,105
2025-04-15 10:28:43.427,0,0,32,69,99
2025-04-15 10:28:43.440,2,0,0,31,81
2025-04-15 10:28:43.446,0,0,0,8,47
2025-04-15 10:28:43.479,0,0,0,0,23
2025-04-15 10:28:43.480,0,0,0,0,0
2025-04-15 10:28:43.481,0,0,0,0,0
2025-04-15 10:28:43.487,0,0,0,0,0
2025-04-15 10:28:43.499,0,0,0,0,0
2025-04-15 10:28:43.506,0,0,0,0,0
2025-04-15 10:28:43.519,0,0,0,0,0
2025-04-15 10:28:43.528,0,0,0,0,0
2025-04-15 10:28:43.549,48,0,6,0,0
2025-04-15 10:28:43.551,90,83,27,10,0
2025-04-15 10:28:43.560,115,84,83,58,0
2025-04-15 10:28:43.571,129,99,114,103,8
2025-04-15 10:28:43.579,142,156,130,105,75
2025-04-15 10:28:43.590,123,136,131,118,96
2025-04-15 10:28:43.615,150,140,117,142,103
2025-04-15 10:28:43.617,120,122,149,142,137
2025-04-15 10:28:43.619,132,141,109,155,137
2025-04-15 10:28:43.631,130,128,132,151,133
2025-04-15 10:28:43.639,122,122,128,132,138
2025-04-15 10:28:43.651,78,110,104,115,129
2025-04-15 10:28:43.659,66,116,75,110,133
2025-04-15 10:28:43.683,47,76,104,92,142
2025-04-15 10:28:43.684,43,40,92,84,116
2025-04-15 10:28:43.690,57,58,34,72,98
2025-04-15 10:28:43.699,59,58,71,48,86
2025-04-15 10:28:43.712,42,37,61,69,64
2025-04-15 10:28:43.719,27,69,58,54,45
2025-04-15 10:28:43.731,74,50,72,43,43
2025-04-15 10:28:43.749,37,49,65,50,37
2025-04-15 10:28:43.751,60,30,54,42,43
2025-04-15 10:28:43.759,39,49,45,67,54
2025-04-15 10:28:43.770,43,53,42,58,43
2025-04-15 10:28:43.779,64,55,54,56,45
2025-04-15 10:28:43.790,69,57,57,69,32
2025-04-15 10:28:43.815,113,100,62,84,38
2025-04-15 10:28:43.816,131,128,98,87,54
2025-04-15 10:28:43.818,141,135,154,106,73
2025-04-15 10:28:43.831,133,120,149,126,105
2025-04-15 10:28:43.843,138,108,136,127,114
2025-04-15 10:28:43.851,135,122,133,135,124
2025-04-15 10:28:43.863,114,140,147,133,124
2025-04-15 10:28:43.881,105,110,139,118,149
2025-04-15 10:28:43.883,70,101,149,114,126
2025-04-15 10:28:43.891,57,71,105,113,115
2025-04-15 10:28:43.903,49,25,63,101,109
2025-04-15 10:28:43.911,0,4,24,83,82
2025-04-15 10:28:43.919,0,0,0,64,72
2025-04-15 10:28:43.948,0,0,0,30,58
2025-04-15 10:28:43.949,0,0,0,0,37
2025-04-15 10:28:43.951,0,0,0,0,0
2025-04-15 10:28:43.958,0,0,0,0,0
2025-04-15 10:28:43.970,0,0,0,0,0
2025-04-15 10:28:43.979,0,0,0,0,0
2025-04-15 10:28:43.990,0,0,0,0,0
2025-04-15 10:28:44.020,0,0,0,0,0
2025-04-15 10:28:44.021,0,0,0,0,0
2025-04-15 10:28:44.023,0,0,0,0,0
2025-04-15 10:28:44.030,0,0,0,0,0
2025-04-15 10:28:44.043,0,0,0,0,0
2025-04-15 10:28:44.051,0,0,0,0,0
2025-04-15 10:28:44.062,17,31,0,0,0
2025-04-15 10:28:44.086,21,30,26,0,0
2025-04-15 10:28:44.088,76,60,29,52,0
2025-04-15 10:28:44.091,117,90,70,32,0
2025-04-15 10:28:44.102,123,116,118,48,17
2025-04-15 10:28:44.110,140,129,138,105,24
2025-04-15 10:28:44.123,110,150,143,98,60
2025-04-15 10:28:44.130,130,132,137,140,107
2025-04-15 10:28:44.155,129,124,151,131,112
2025-04-15 10:28:44.156,126,128,123,126,159
2025-04-15 10:28:44.163,119,146,133,138,119
2025-04-15 10:28:44.174,111,128,121,145,132
2025-04-15 10:28:44.183,107,113,126,118,124
2025-04-15 10:28:44.194,108,114,134,124,114
2025-04-15 10:28:44.202,90,113,101,141,136
2025-04-15 10:28:44.224,93,98,103,91,140
2025-04-15 10:28:44.225,66,91,100,103,121
2025-04-15 10:28:44.234,44,82,92,121,111
2025-04-15 10:28:44.243,39,51,78,84,97
2025-04-15 10:28:44.255,43,42,56,96,85
2025-04-15 10:28:44.262,41,39,29,80,87
2025-04-15 10:28:44.288,36,42,46,56,76
2025-04-15 10:28:44.290,31,47,60,27,74
2025-04-15 10:28:44.291,31,47,60,27,74
2025-04-15 10:28:44.294,49,40,55,41,28
2025-04-15 10:28:44.303,66,63,64,45,27
2025-04-15 10:28:44.315,72,76,71,86,53
2025-04-15 10:28:44.322,97,91,73,73,50
2025-04-15 10:28:44.334,115,87,103,68,77
2025-04-15 10:28:44.353,120,111,123,89,69
2025-04-15 10:28:44.355,122,119,127,146,92
2025-04-15 10:28:44.362,122,126,146,157,93
2025-04-15 10:28:44.374,109,118,116,135,121
2025-04-15 10:28:44.382,106,104,117,136,134
2025-04-15 10:28:44.394,118,112,133,110,141
2025-04-15 10:28:44.402,99,102,121,130,133
2025-04-15 10:28:44.419,95,79,118,126,140
2025-04-15 10:28:44.423,89,86,106,125,123
2025-04-15 10:28:44.434,58,84,96,106,103
2025-04-15 10:28:44.443,50,63,101,108,113
2025-04-15 10:28:44.455,29,32,83,81,108
2025-04-15 10:28:44.462,0,0,2,43,89
2025-04-15 10:28:44.486,0,0,0,0,62
2025-04-15 10:28:44.487,0,0,0,0,31
2025-04-15 10:28:44.495,0,0,0,0,23
2025-04-15 10:28:44.501,0,0,0,0,0
2025-04-15 10:28:44.515,0,0,0,0,0
2025-04-15 10:28:44.522,0,0,0,0,0
2025-04-15 10:28:44.534,0,0,0,0,0
2025-04-15 10:28:44.554,0,0,0,0,0
2025-04-15 10:28:44.555,0,0,0,0,0
2025-04-15 10:28:44.562,0,0,0,0,0
2025-04-15 10:28:44.574,0,0,0,0,0
2025-04-15 10:28:44.582,0,0,0,0,0
2025-04-15 10:28:44.595,0,0,0,0,0
2025-04-15 10:28:44.602,0,0,0,0,0
2025-04-15 10:28:44.621,0,0,0,0,0
2025-04-15 10:28:44.623,0,0,0,0,0
2025-04-15 10:28:44.634,0,0,0,0,0
2025-04-15 10:28:44.642,0,0,0,0,0
2025-04-15 10:28:44.654,0,0,0,0,0
2025-04-15 10:28:44.662,0,0,0,0,0
2025-04-15 10:28:44.686,0,0,0,0,0
2025-04-15 10:28:44.688,0,0,0,0,0
2025-04-15 10:28:44.694,0,0,0,0,0
2025-04-15 10:28:44.705,0,0,0,0,0
2025-04-15 10:28:44.714,30,26,4,1,0
2025-04-15 10:28:44.725,56,45,27,9,0
2025-04-15 10:28:44.734,104,77,62,30,0
2025-04-15 10:28:44.752,98,116,102,57,15
2025-04-15 10:28:44.754,100,118,108,91,30
2025-04-15 10:28:44.766,96,112,118,117,53
2025-04-15 10:28:44.773,100,106,122,120,100
2025-04-15 10:28:44.786,103,111,115,113,108
2025-04-15 10:28:44.794,97,101,118,120,132
2025-04-15 10:28:44.818,120,101,109,113,127
2025-04-15 10:28:44.819,86,102,123,107,115
2025-04-15 10:28:44.826,49,101,125,110,119
2025-04-15 10:28:44.834,59,94,116,106,126
2025-04-15 10:28:44.846,9,88,101,115,100
2025-04-15 10:28:44.859,71,95,103,104,124
2025-04-15 10:28:44.866,115,94,103,111,110
2025-04-15 10:28:44.886,151,102,116,120,109
2025-04-15 10:28:44.887,226,92,110,126,113
2025-04-15 10:28:44.897,145,93,114,121,121
2025-04-15 10:28:44.906,192,99,115,131,99
2025-04-15 10:28:44.918,134,95,112,110,119
2025-04-15 10:28:44.926,17,121,113,131,119
2025-04-15 10:28:44.952,24,94,113,125,105
2025-04-15 10:28:44.954,0,104,103,123,109
2025-04-15 10:28:44.958,0,82,106,106,119
2025-04-15 10:28:44.966,0,20,108,122,110
2025-04-15 10:28:44.978,0,58,94,119,103
2025-04-15 10:28:44.986,0,9,93,104,102
2025-04-15 10:28:44.998,0,79,79,109,100
2025-04-15 10:28:45.020,0,136,68,86,100
2025-04-15 10:28:45.022,0,90,43,74,85
2025-04-15 10:28:45.026,0,119,3,52,76
2025-04-15 10:28:45.038,0,0,0,14,44
2025-04-15 10:28:45.045,0,0,0,0,17
2025-04-15 10:28:45.058,0,0,0,0,0
2025-04-15 10:28:45.066,0,0,0,0,0
2025-04-15 10:28:45.086,0,0,0,0,0
2025-04-15 10:28:45.087,0,0,0,0,0
2025-04-15 10:28:45.098,0,0,0,0,0
2025-04-15 10:28:45.105,0,0,0,0,0
2025-04-15 10:28:45.117,0,0,0,0,0
2025-04-15 10:28:45.126,15,0,0,0,0
2025-04-15 10:28:45.152,48,0,29,0,0
2025-04-15 10:28:45.153,49,0,123,0,0
2025-04-15 10:28:45.158,46,0,61,26,0
2025-04-15 10:28:45.166,33,0,103,14,6
2025-04-15 10:28:45.178,30,0,19,6,16
2025-04-15 10:28:45.185,20,0,0,5,14
2025-04-15 10:28:45.198,0,0,0,0,17
2025-04-15 10:28:45.218,0,0,0,0,3
2025-04-15 10:28:45.219,0,0,0,0,0
2025-04-15 10:28:45.225,0,0,0,0,0
2025-04-15 10:28:45.237,0,0,0,0,0
2025-04-15 10:28:45.245,0,0,0,0,0
2025-04-15 10:28:45.258,0,0,0,0,0
2025-04-15 10:28:45.265,0,0,0,0,0
2025-04-15 10:28:45.289,0,0,0,0,0
2025-04-15 10:28:45.290,4,0,0,0,0
2025-04-15 10:28:45.292,4,0,0,0,0
2025-04-15 10:28:45.297,29,11,0,0,0
2025-04-15 10:28:45.310,45,36,0,0,0
2025-04-15 10:28:45.318,71,52,0,0,0
2025-04-15 10:28:45.330,81,61,2,0,0
2025-04-15 10:28:45.337,113,81,45,0,0
2025-04-15 10:28:45.359,149,111,68,0,0
2025-04-15 10:28:45.360,151,143,113,0,0
2025-04-15 10:28:45.370,162,163,140,33,11
2025-04-15 10:28:45.378,183,163,153,48,40
2025-04-15 10:28:45.389,185,176,166,132,53
2025-04-15 10:28:45.398,190,167,165,204,83
2025-04-15 10:28:45.428,191,178,179,183,95
2025-04-15 10:28:45.429,200,193,197,253,116
2025-04-15 10:28:45.431,211,208,207,176,106
2025-04-15 10:28:45.438,207,221,236,194,130
2025-04-15 10:28:45.449,203,216,230,176,150
2025-04-15 10:28:45.457,214,213,216,51,165
2025-04-15 10:28:45.470,184,199,220,71,190
2025-04-15 10:28:45.493,182,195,213,13,165
2025-04-15 10:28:45.495,146,171,178,30,144
2025-04-15 10:28:45.502,117,147,166,50,134
2025-04-15 10:28:45.510,100,133,134,46,60
2025-04-15 10:28:45.522,104,116,111,43,104
2025-04-15 10:28:45.529,46,101,97,16,116
2025-04-15 10:28:45.537,7,44,49,0,144
2025-04-15 10:28:45.557,0,0,18,0,164
2025-04-15 10:28:45.558,0,0,0,0,62
2025-04-15 10:28:45.569,0,0,0,0,102
2025-04-15 10:28:45.577,0,0,0,0,0
2025-04-15 10:28:45.590,0,0,0,0,0
2025-04-15 10:28:45.597,0,0,0,0,0
2025-04-15 10:28:45.627,0,0,0,0,0
2025-04-15 10:28:45.629,0,0,0,0,0
2025-04-15 10:28:45.630,0,0,0,0,0
2025-04-15 10:28:45.642,6,6,13,0,0
2025-04-15 10:28:45.649,39,22,24,0,0
2025-04-15 10:28:45.661,38,49,36,14,0
2025-04-15 10:28:45.670,52,51,64,32,0
2025-04-15 10:28:45.697,53,71,80,50,0
2025-04-15 10:28:45.699,53,49,68,65,0
2025-04-15 10:28:45.701,49,56,68,66,0
2025-04-15 10:28:45.709,53,51,49,58,0
2025-04-15 10:28:45.721,34,48,55,69,0
2025-04-15 10:28:45.729,43,53,45,61,0
2025-04-15 10:28:45.742,0,27,56,56,5
2025-04-15 10:28:45.762,4,38,24,57,17
2025-04-15 10:28:45.764,0,18,36,40,19
2025-04-15 10:28:45.770,0,0,10,21,24
2025-04-15 10:28:45.781,0,0,0,13,15
2025-04-15 10:28:45.788,0,0,0,0,0
2025-04-15 10:28:45.801,0,0,0,0,0
2025-04-15 10:28:45.809,0,0,0,0,0
2025-04-15 10:28:45.826,0,0,0,0,0
2025-04-15 10:28:45.828,13,0,0,0,0
2025-04-15 10:28:45.841,63,47,13,10,0
2025-04-15 10:28:45.849,98,72,57,30,0
2025-04-15 10:28:45.861,170,157,107,80,18
2025-04-15 10:28:45.873,217,194,197,132,35
2025-04-15 10:28:45.892,210,220,229,212,113
2025-04-15 10:28:45.894,229,206,219,235,185
2025-04-15 10:28:45.901,247,208,208,230,227
2025-04-15 10:28:45.913,217,214,216,231,224
2025-04-15 10:28:45.921,187,178,216,233,229
2025-04-15 10:28:45.934,149,172,196,229,217
2025-04-15 10:28:45.961,117,158,192,209,214
2025-04-15 10:28:45.963,96,107,132,186,195
2025-04-15 10:28:45.964,35,68,72,163,183
2025-04-15 10:28:45.973,0,12,42,111,156
2025-04-15 10:28:45.982,0,0,0,64,130
2025-04-15 10:28:45.993,0,0,0,0,82
2025-04-15 10:28:46.001,0,0,0,0,20
2025-04-15 10:28:46.032,0,0,0,0,0
2025-04-15 10:28:46.033,0,0,0,0,0
2025-04-15 10:28:46.035,0,0,0,0,0
2025-04-15 10:28:46.042,0,0,0,0,0
2025-04-15 10:28:46.053,0,0,0,0,0
2025-04-15 10:28:46.060,0,0,0,0,0
2025-04-15 10:28:46.073,7,0,0,0,0
2025-04-15 10:28:46.098,13,0,0,0,0
2025-04-15 10:28:46.100,23,42,10,0,0
2025-04-15 10:28:46.101,23,42,10,0,0
2025-04-15 10:28:46.102,45,41,56,44,20
2025-04-15 10:28:46.113,32,66,63,45,18
2025-04-15 10:28:46.121,43,59,51,57,47
2025-04-15 10:28:46.134,69,39,44,59,56
2025-04-15 10:28:46.141,66,52,48,43,48
2025-04-15 10:28:46.167,66,54,34,52,44
2025-04-15 10:28:46.168,60,33,59,43,42
2025-04-15 10:28:46.174,31,52,69,16,67
2025-04-15 10:28:46.185,33,50,38,56,32
2025-04-15 10:28:46.193,32,68,59,37,56
2025-04-15 10:28:46.206,40,43,59,48,50
2025-04-15 10:28:46.213,46,38,20,68,44
2025-04-15 10:28:46.234,24,54,35,52,43
2025-04-15 10:28:46.235,16,41,44,45,29
2025-04-15 10:28:46.246,0,19,39,49,46
2025-04-15 10:28:46.253,13,0,12,38,52
2025-04-15 10:28:46.265,0,0,0,30,22
2025-04-15 10:28:46.272,0,0,0,12,18
2025-04-15 10:28:46.302,0,0,0,0,37
2025-04-15 10:28:46.304,0,0,0,0,0
2025-04-15 10:28:46.305,0,0,0,0,0
2025-04-15 10:28:46.313,0,0,0,0,0
2025-04-15 10:28:46.325,0,0,0,0,0
2025-04-15 10:28:46.333,0,0,0,0,0
2025-04-15 10:28:46.345,12,13,0,0,0
2025-04-15 10:28:46.370,25,13,33,0,0
2025-04-15 10:28:46.371,49,39,31,7,0
2025-04-15 10:28:46.373,72,46,40,0,0
2025-04-15 10:28:46.386,100,90,73,36,0
2025-04-15 10:28:46.393,138,116,86,61,0
2025-04-15 10:28:46.405,159,136,128,96,21
2025-04-15 10:28:46.412,195,168,148,143,48
2025-04-15 10:28:46.436,223,219,184,142,90
2025-04-15 10:28:46.438,207,190,216,179,121
2025-04-15 10:28:46.445,183,189,197,157,107
2025-04-15 10:28:46.456,196,205,231,199,155
2025-04-15 10:28:46.465,184,200,207,225,168
2025-04-15 10:28:46.477,167,173,222,195,209
2025-04-15 10:28:46.484,154,176,193,213,220
2025-04-15 10:28:46.504,136,175,172,208,226
2025-04-15 10:28:46.506,125,164,168,187,222
2025-04-15 10:28:46.517,135,142,138,217,190
2025-04-15 10:28:46.524,94,105,134,178,175
2025-04-15 10:28:46.537,60,92,113,136,168
2025-04-15 10:28:46.545,9,25,53,97,147
2025-04-15 10:28:46.569,3,12,0,58,110
2025-04-15 10:28:46.570,0,0,3,35,53
2025-04-15 10:28:46.577,0,6,0,21,31
2025-04-15 10:28:46.584,0,0,0,15,35
2025-04-15 10:28:46.597,0,0,0,0,4
2025-04-15 10:28:46.605,0,0,0,1,4
2025-04-15 10:28:46.616,0,0,0,0,0
2025-04-15 10:28:46.633,0,0,0,0,0
2025-04-15 10:28:46.636,0,0,0,0,0
2025-04-15 10:28:46.644,0,0,0,0,0
2025-04-15 10:28:46.656,4,0,0,0,0
2025-04-15 10:28:46.665,16,13,1,0,0
2025-04-15 10:28:46.676,31,37,49,8,0
2025-04-15 10:28:46.699,25,35,47,43,0
2025-04-15 10:28:46.700,45,52,17,67,0
2025-04-15 10:28:46.705,30,42,41,29,16
2025-04-15 10:28:46.717,38,50,26,57,45
2025-04-15 10:28:46.724,22,38,39,53,30
2025-04-15 10:28:46.736,23,40,37,77,35
2025-04-15 10:28:46.744,31,41,59,58,24
2025-04-15 10:28:46.766,12,47,31,79,32
2025-04-15 10:28:46.768,45,33,48,50,30
2025-04-15 10:28:46.776,39,39,59,32,31
2025-04-15 10:28:46.785,25,21,62,54,47
2025-04-15 10:28:46.797,21,37,32,58,59
2025-04-15 10:28:46.808,42,35,37,37,34
2025-04-15 10:28:46.832,18,44,25,64,46
2025-04-15 10:28:46.834,31,37,33,44,52
2025-04-15 10:28:46.836,33,34,51,33,40
2025-04-15 10:28:46.848,23,27,40,35,24
2025-04-15 10:28:46.856,16,23,35,34,25
2025-04-15 10:28:46.868,13,20,45,37,55
2025-04-15 10:28:46.877,8,14,22,27,37
2025-04-15 10:28:46.898,0,0,13,18,52
2025-04-15 10:28:46.900,0,0,0,16,12
2025-04-15 10:28:46.909,0,0,0,19,0
2025-04-15 10:28:46.916,0,0,0,8,11
2025-04-15 10:28:46.928,0,0,0,0,0
2025-04-15 10:28:46.935,0,0,0,0,0
2025-04-15 10:28:46.963,0,0,0,0,0
2025-04-15 10:28:46.964,0,0,0,0,0
2025-04-15 10:28:46.968,0,0,0,0,0
2025-04-15 10:28:46.977,23,0,0,0,0
2025-04-15 10:28:46.988,33,16,19,0,0
2025-04-15 10:28:46.996,55,30,17,6,0
2025-04-15 10:28:47.009,58,48,38,29,0
2025-04-15 10:28:47.030,49,49,40,36,0
2025-04-15 10:28:47.031,70,63,64,42,7
2025-04-15 10:28:47.036,80,67,67,66,44
2025-04-15 10:28:47.048,93,91,67,72,42
2025-04-15 10:28:47.057,104,97,89,82,33
2025-04-15 10:28:47.069,113,119,101,82,49
2025-04-15 10:28:47.096,138,134,112,92,45
2025-04-15 10:28:47.098,174,158,148,104,66
2025-04-15 10:28:47.100,150,176,171,141,78
2025-04-15 10:28:47.101,150,176,171,141,78
2025-04-15 10:28:47.108,120,154,167,170,125
2025-04-15 10:28:47.120,96,133,149,180,138
2025-04-15 10:28:47.128,78,100,126,159,162
2025-04-15 10:28:47.140,33,78,99,143,173
2025-04-15 10:28:47.163,14,26,72,109,156
2025-04-15 10:28:47.164,15,20,21,74,131
2025-04-15 10:28:47.169,9,18,18,41,90
2025-04-15 10:28:47.181,0,14,20,37,56
2025-04-15 10:28:47.188,0,2,9,27,50
2025-04-15 10:28:47.200,0,0,5,25,25
2025-04-15 10:28:47.209,0,0,0,8,23
2025-04-15 10:28:47.231,0,0,0,10,5
2025-04-15 10:28:47.233,0,0,0,1,1
2025-04-15 10:28:47.241,0,0,0,0,11
2025-04-15 10:28:47.249,0,0,0,0,3
2025-04-15 10:28:47.261,0,0,0,0,0
2025-04-15 10:28:47.268,0,0,0,0,0
2025-04-15 10:28:47.297,0,4,4,0,0
2025-04-15 10:28:47.298,11,22,14,2,0
2025-04-15 10:28:47.300,66,14,23,4,0
2025-04-15 10:28:47.308,78,17,20,34,0
2025-04-15 10:28:47.320,141,10,29,34,3
2025-04-15 10:28:47.328,52,19,31,12,31
2025-04-15 10:28:47.341,93,8,32,38,25
2025-04-15 10:28:47.364,38,8,29,27,44
2025-04-15 10:28:47.365,0,44,22,26,26
2025-04-15 10:28:47.367,0,15,27,32,16
2025-04-15 10:28:47.381,0,11,26,32,19
2025-04-15 10:28:47.388,0,3,22,27,29
2025-04-15 10:28:47.401,0,0,23,34,17
2025-04-15 10:28:47.408,0,0,22,35,21
2025-04-15 10:28:47.430,0,0,21,25,24
2025-04-15 10:28:47.432,0,29,20,34,22
2025-04-15 10:28:47.440,0,100,28,32,27
2025-04-15 10:28:47.452,0,84,27,24,32
2025-04-15 10:28:47.460,0,138,11,30,31
2025-04-15 10:28:47.472,0,53,21,36,21
2025-04-15 10:28:47.497,0,51,20,26,21
2025-04-15 10:28:47.499,0,16,19,34,11
2025-04-15 10:28:47.500,13,0,36,36,29
2025-04-15 10:28:47.512,18,0,7,28,19
2025-04-15 10:28:47.520,32,0,0,38,36
2025-04-15 10:28:47.531,22,0,0,26,20
2025-04-15 10:28:47.540,28,0,0,29,20
2025-04-15 10:28:47.565,8,0,0,8,25
2025-04-15 10:28:47.567,2,0,0,6,18
2025-04-15 10:28:47.573,0,0,3,0,12
2025-04-15 10:28:47.580,0,0,50,0,0
2025-04-15 10:28:47.592,0,0,1,0,0
2025-04-15 10:28:47.600,4,0,70,0,0
2025-04-15 10:28:47.612,15,0,0,0,0
2025-04-15 10:28:47.632,26,0,0,0,0
2025-04-15 10:28:47.634,36,0,0,0,0
2025-04-15 10:28:47.640,68,15,0,0,0
2025-04-15 10:28:47.652,85,48,0,0,0
2025-04-15 10:28:47.660,98,62,0,10,0
2025-04-15 10:28:47.672,115,83,0,38,2
2025-04-15 10:28:47.699,158,122,0,50,30
2025-04-15 10:28:47.701,181,151,21,71,59
2025-04-15 10:28:47.704,210,181,56,90,61
2025-04-15 10:28:47.711,222,217,85,109,82
2025-04-15 10:28:47.724,212,208,115,148,85
2025-04-15 10:28:47.732,197,212,109,174,129
2025-04-15 10:28:47.744,178,205,115,168,156
2025-04-15 10:28:47.765,156,179,105,161,181
2025-04-15 10:28:47.766,128,143,100,160,167
2025-04-15 10:28:47.771,95,121,89,128,158
2025-04-15 10:28:47.784,45,77,74,122,141
2025-04-15 10:28:47.792,33,47,28,56,123
2025-04-15 10:28:47.804,33,21,26,0,84
2025-04-15 10:28:47.811,26,37,20,0,47
2025-04-15 10:28:47.830,11,9,16,0,28
2025-04-15 10:28:47.831,0,0,0,0,2
2025-04-15 10:28:47.844,0,0,0,0,0
2025-04-15 10:28:47.851,0,0,0,0,0
2025-04-15 10:28:47.864,0,0,0,57,0
2025-04-15 10:28:47.872,6,0,0,0,0
2025-04-15 10:28:47.895,1,15,1,31,0
2025-04-15 10:28:47.897,29,18,16,0,0
2025-04-15 10:28:47.905,27,24,24,0,0
2025-04-15 10:28:47.912,37,29,26,0,0
2025-04-15 10:28:47.924,42,38,35,0,0
2025-04-15 10:28:47.931,59,69,61,0,0
2025-04-15 10:28:47.944,54,53,59,0,0
2025-04-15 10:28:47.965,66,61,56,0,0
2025-04-15 10:28:47.967,44,70,65,0,0
2025-04-15 10:28:47.971,53,66,58,0,0
2025-04-15 10:28:47.984,36,66,63,0,33
2025-04-15 10:28:47.996,56,75,73,0,82
2025-04-15 10:28:48.003,53,62,59,0,72
2025-04-15 10:28:48.033,63,59,52,0,140
2025-04-15 10:28:48.035,47,56,52,0,54
2025-04-15 10:28:48.036,59,58,58,0,65
2025-04-15 10:28:48.044,52,47,54,11,25
2025-04-15 10:28:48.055,28,50,59,13,0
2025-04-15 10:28:48.064,21,50,56,40,0
2025-04-15 10:28:48.075,16,47,42,30,0
2025-04-15 10:28:48.100,12,15,46,33,0
2025-04-15 10:28:48.101,11,19,41,32,0
2025-04-15 10:28:48.107,0,0,31,25,0
2025-04-15 10:28:48.109,0,0,31,25,0
2025-04-15 10:28:48.115,0,0,0,5,0
2025-04-15 10:28:48.123,0,0,0,0,0
2025-04-15 10:28:48.135,0,0,0,0,0
2025-04-15 10:28:48.143,0,0,0,0,0
2025-04-15 10:28:48.165,0,0,0,0,0
2025-04-15 10:28:48.166,7,0,0,0,0
2025-04-15 10:28:48.176,15,4,1,0,0
2025-04-15 10:28:48.184,18,29,7,0,0
2025-04-15 10:28:48.196,56,47,43,0,0
2025-04-15 10:28:48.203,101,84,67,37,0
2025-04-15 10:28:48.232,155,135,92,66,0
2025-04-15 10:28:48.233,206,180,172,112,26
2025-04-15 10:28:48.235,232,232,215,162,74
2025-04-15 10:28:48.248,222,229,219,216,134
2025-04-15 10:28:48.256,211,222,236,226,187
2025-04-15 10:28:48.267,203,216,221,227,230
2025-04-15 10:28:48.275,187,188,216,231,225
2025-04-15 10:28:48.299,171,183,202,225,221
2025-04-15 10:28:48.301,155,171,175,218,227
2025-04-15 10:28:48.309,112,141,153,187,212
2025-04-15 10:28:48.315,66,109,100,145,188
2025-04-15 10:28:48.328,0,29,48,111,174
2025-04-15 10:28:48.336,0,0,4,73,140
2025-04-15 10:28:48.347,0,0,0,17,100
2025-04-15 10:28:48.365,0,0,0,0,37
2025-04-15 10:28:48.368,0,0,0,0,0
2025-04-15 10:28:48.375,0,0,0,0,0
2025-04-15 10:28:48.386,0,0,0,0,0
2025-04-15 10:28:48.396,0,0,0,0,0
2025-04-15 10:28:48.407,0,0,0,0,0
2025-04-15 10:28:48.432,0,0,0,0,0
2025-04-15 10:28:48.433,0,0,1,0,0
2025-04-15 10:28:48.435,35,6,0,0,0
2025-04-15 10:28:48.448,49,13,3,5,0
2025-04-15 10:28:48.455,48,24,45,11,0
2025-04-15 10:28:48.467,52,50,35,24,0
2025-04-15 10:28:48.476,66,57,42,50,14
2025-04-15 10:28:48.501,40,53,48,48,32
2025-04-15 10:28:48.503,38,57,64,45,42
2025-04-15 10:28:48.508,38,55,53,57,56
2025-04-15 10:28:48.515,32,46,62,58,50
2025-04-15 10:28:48.528,30,55,47,63,58
2025-04-15 10:28:48.536,26,40,71,48,68
2025-04-15 10:28:48.548,36,51,53,55,63
2025-04-15 10:28:48.570,43,23,31,48,50
2025-04-15 10:28:48.571,22,37,42,46,47
2025-04-15 10:28:48.575,34,0,18,39,41
2025-04-15 10:28:48.588,0,0,17,23,34
2025-04-15 10:28:48.595,0,6,2,11,34
2025-04-15 10:28:48.607,0,0,0,1,16
2025-04-15 10:28:48.616,0,0,0,15,1
2025-04-15 10:28:48.637,0,0,0,0,0
2025-04-15 10:28:48.638,0,0,3,0,0
2025-04-15 10:28:48.647,0,0,0,0,0
2025-04-15 10:28:48.658,0,0,0,0,0
2025-04-15 10:28:48.667,0,0,0,0,0
2025-04-15 10:28:48.679,0,0,0,0,0
2025-04-15 10:28:48.704,0,0,0,0,0
2025-04-15 10:28:48.705,0,0,0,0,0
2025-04-15 10:28:48.707,5,0,0,0,0
2025-04-15 10:28:48.718,18,7,1,0,0
2025-04-15 10:28:48.727,42,9,4,0,0
2025-04-15 10:28:48.739,56,35,44,0,0
2025-04-15 10:28:48.746,95,78,46,8,0
2025-04-15 10:28:48.769,123,102,102,29,0
2025-04-15 10:28:48.771,158,151,139,84,30
2025-04-15 10:28:48.779,196,172,153,126,46
2025-04-15 10:28:48.787,190,199,158,153,73
2025-04-15 10:28:48.799,233,215,171,201,122
2025-04-15 10:28:48.811,205,227,196,205,173
2025-04-15 10:28:48.834,200,217,237,173,159
2025-04-15 10:28:48.835,210,213,213,209,183
2025-04-15 10:28:48.839,226,191,195,236,178
2025-04-15 10:28:48.851,216,207,213,222,206
2025-04-15 10:28:48.859,196,218,198,214,204
2025-04-15 10:28:48.871,182,208,198,209,221
2025-04-15 10:28:48.878,161,192,211,183,219
2025-04-15 10:28:48.900,150,165,182,202,205
2025-04-15 10:28:48.901,114,159,161,209,204
2025-04-15 10:28:48.911,100,117,153,184,196
2025-04-15 10:28:48.912,100,117,153,184,196
2025-04-15 10:28:48.919,98,106,155,142,194
2025-04-15 10:28:48.931,67,81,114,111,154
2025-04-15 10:28:48.938,57,76,94,93,165
2025-04-15 10:28:48.968,11,31,94,88,134
2025-04-15 10:28:48.969,0,20,38,73,84
2025-04-15 10:28:48.971,0,12,25,68,69
2025-04-15 10:28:48.979,0,0,23,69,80
2025-04-15 10:28:48.991,0,0,0,22,41
2025-04-15 10:28:48.999,0,0,0,0,24
2025-04-15 10:28:49.011,0,0,0,0,0
2025-04-15 10:28:49.034,0,0,0,0,3
2025-04-15 10:28:49.035,0,0,0,0,0
2025-04-15 10:28:49.039,0,0,0,0,0
2025-04-15 10:28:49.052,0,0,0,0,0
2025-04-15 10:28:49.059,0,0,0,0,0
2025-04-15 10:28:49.071,0,0,0,0,0
2025-04-15 10:28:49.079,0,0,0,0,0
2025-04-15 10:28:49.100,0,0,0,0,0
2025-04-15 10:28:49.101,0,0,0,0,0
2025-04-15 10:28:49.112,0,0,0,0,0
2025-04-15 10:28:49.119,17,21,10,0,0
2025-04-15 10:28:49.131,28,13,0,0,0
2025-04-15 10:28:49.138,48,41,43,28,0
2025-04-15 10:28:49.170,38,35,42,11,0
2025-04-15 10:28:49.172,25,28,40,69,0
2025-04-15 10:28:49.174,11,39,48,39,7
2025-04-15 10:28:49.179,20,39,51,43,52
2025-04-15 10:28:49.190,4,27,44,42,36
2025-04-15 10:28:49.199,11,15,30,46,17
2025-04-15 10:28:49.211,0,11,15,38,40
2025-04-15 10:28:49.218,0,9,23,28,22
2025-04-15 10:28:49.239,0,13,20,41,19
2025-04-15 10:28:49.241,0,0,0,10,22
2025-04-15 10:28:49.250,0,0,0,18,15
2025-04-15 10:28:49.259,0,0,0,1,6
2025-04-15 10:28:49.271,0,0,0,0,9
2025-04-15 10:28:49.278,0,0,0,0,0
2025-04-15 10:28:49.304,0,0,0,0,0
2025-04-15 10:28:49.305,0,0,0,0,0
2025-04-15 10:28:49.311,0,0,0,0,0
2025-04-15 10:28:49.319,0,0,0,0,0
2025-04-15 10:28:49.330,0,0,0,0,0
2025-04-15 10:28:49.343,0,0,0,0,0
2025-04-15 10:28:49.351,0,0,0,0,0
2025-04-15 10:28:49.369,0,0,0,0,0
2025-04-15 10:28:49.370,12,1,0,0,0
2025-04-15 10:28:49.383,53,35,33,12,0
2025-04-15 10:28:49.390,82,69,46,7,0
2025-04-15 10:28:49.403,117,97,76,29,13
2025-04-15 10:28:49.410,121,108,105,69,27
2025-04-15 10:28:49.435,117,123,119,84,41
2025-04-15 10:28:49.436,120,123,117,129,61
2025-04-15 10:28:49.443,118,109,122,112,111
2025-04-15 10:28:49.451,132,127,115,137,113
2025-04-15 10:28:49.463,132,126,122,126,118
2025-04-15 10:28:49.475,136,121,116,116,118
2025-04-15 10:28:49.482,136,125,124,128,131
2025-04-15 10:28:49.505,118,121,131,118,124
2025-04-15 10:28:49.507,125,112,120,129,133
2025-04-15 10:28:49.516,109,121,120,131,118
2025-04-15 10:28:49.523,121,136,124,141,119
2025-04-15 10:28:49.535,111,114,114,113,124
2025-04-15 10:28:49.543,107,118,127,129,136
2025-04-15 10:28:49.573,108,117,124,118,123
2025-04-15 10:28:49.574,112,120,106,112,118
2025-04-15 10:28:49.575,104,116,130,126,101
2025-04-15 10:28:49.583,106,106,104,128,126
2025-04-15 10:28:49.594,113,131,103,112,103
2025-04-15 10:28:49.603,116,122,126,112,110
2025-04-15 10:28:49.615,107,120,121,119,116
2025-04-15 10:28:49.647,104,121,123,131,114
2025-04-15 10:28:49.649,105,111,117,132,109
2025-04-15 10:28:49.650,106,112,107,118,99
2025-04-15 10:28:49.655,106,103,106,121,126
2025-04-15 10:28:49.662,80,105,112,118,112
2025-04-15 10:28:49.674,95,110,106,127,116
2025-04-15 10:28:49.683,85,110,121,124,131
2025-04-15 10:28:49.695,83,101,108,110,116
2025-04-15 10:28:49.718,101,98,111,111,134
2025-04-15 10:28:49.720,75,82,101,122,103
2025-04-15 10:28:49.723,83,87,89,106,123
2025-04-15 10:28:49.735,50,77,108,109,113
2025-04-15 10:28:49.743,13,80,94,108,105
2025-04-15 10:28:49.755,12,62,77,102,125
2025-04-15 10:28:49.763,0,43,69,96,94
2025-04-15 10:28:49.785,5,31,54,81,92
2025-04-15 10:28:49.787,22,7,40,85,87
2025-04-15 10:28:49.795,46,12,35,68,84
2025-04-15 10:28:49.802,81,0,10,59,86
2025-04-15 10:28:49.815,0,0,2,46,63
2025-04-15 10:28:49.823,12,0,0,16,48
2025-04-15 10:28:49.853,0,0,0,13,46
2025-04-15 10:28:49.854,0,0,0,0,28
2025-04-15 10:28:49.855,0,0,0,0,0
2025-04-15 10:28:49.862,0,0,0,0,0
2025-04-15 10:28:49.874,0,0,0,0,0
2025-04-15 10:28:49.881,0,0,0,0,0
2025-04-15 10:28:49.894,0,0,0,0,0
2025-04-15 10:28:49.902,0,0,0,0,0
2025-04-15 10:28:49.921,0,0,0,0,0
2025-04-15 10:28:49.922,0,0,0,0,0
2025-04-15 10:28:49.923,0,0,0,0,0
2025-04-15 10:28:49.935,0,33,0,0,0
2025-04-15 10:28:49.942,0,0,0,0,0
2025-04-15 10:28:49.955,0,0,0,0,0
2025-04-15 10:28:49.962,0,0,0,0,0
2025-04-15 10:28:49.985,0,0,0,0,0
2025-04-15 10:28:49.987,0,0,0,0,0
2025-04-15 10:28:49.994,0,0,0,0,0
2025-04-15 10:28:50.006,4,0,0,0,0
2025-04-15 10:28:50.014,35,0,0,0,0
2025-04-15 10:28:50.026,72,0,0,0,0
2025-04-15 10:28:50.033,116,0,1,12,0
2025-04-15 10:28:50.051,145,21,88,29,0
2025-04-15 10:28:50.054,145,39,175,40,12
2025-04-15 10:28:50.067,147,34,166,90,27
2025-04-15 10:28:50.074,147,42,227,113,61
2025-04-15 10:28:50.086,146,49,136,118,117
2025-04-15 10:28:50.093,139,66,137,112,115
2025-04-15 10:28:50.119,139,78,97,111,105
2025-04-15 10:28:50.121,123,95,0,100,110
2025-04-15 10:28:50.126,127,93,0,116,113
2025-04-15 10:28:50.134,115,100,0,91,124
2025-04-15 10:28:50.147,98,90,0,93,106
2025-04-15 10:28:50.154,83,89,0,79,105
2025-04-15 10:28:50.166,85,73,0,77,101
2025-04-15 10:28:50.187,67,58,0,60,81
2025-04-15 10:28:50.189,60,66,0,46,66
2025-04-15 10:28:50.194,69,58,0,26,52
2025-04-15 10:28:50.206,65,65,0,17,37
2025-04-15 10:28:50.214,71,74,0,7,27
2025-04-15 10:28:50.226,83,89,0,23,14
2025-04-15 10:28:50.254,65,87,10,30,16
2025-04-15 10:28:50.255,90,88,21,28,23
2025-04-15 10:28:50.258,116,100,63,59,22
2025-04-15 10:28:50.266,135,132,82,41,24
2025-04-15 10:28:50.278,146,150,128,40,37
2025-04-15 10:28:50.286,131,144,132,42,68
2025-04-15 10:28:50.298,135,140,142,20,59
2025-04-15 10:28:50.318,150,148,142,81,73
2025-04-15 10:28:50.320,155,154,152,128,100
2025-04-15 10:28:50.326,158,135,143,152,99
2025-04-15 10:28:50.337,146,138,146,218,97
2025-04-15 10:28:50.346,148,135,146,151,83
2025-04-15 10:28:50.358,119,119,136,199,96
2025-04-15 10:28:50.366,111,129,132,124,81
2025-04-15 10:28:50.383,92,100,117,37,87
2025-04-15 10:28:50.385,81,95,115,40,110
2025-04-15 10:28:50.398,52,82,88,0,81
2025-04-15 10:28:50.406,18,39,69,0,93
2025-04-15 10:28:50.418,0,15,40,0,46
2025-04-15 10:28:50.426,0,0,10,0,0
2025-04-15 10:28:50.449,0,0,0,0,0
2025-04-15 10:28:50.450,0,0,0,0,0
2025-04-15 10:28:50.457,0,0,0,0,0
2025-04-15 10:28:50.467,0,0,0,0,10
2025-04-15 10:28:50.478,0,0,0,0,0
2025-04-15 10:28:50.486,0,0,0,0,13
2025-04-15 10:28:50.498,0,0,0,0,0
2025-04-15 10:28:50.517,0,0,0,0,0
2025-04-15 10:28:50.518,0,0,0,0,0
2025-04-15 10:28:50.525,0,0,0,0,0
2025-04-15 10:28:50.538,0,0,0,0,0
2025-04-15 10:28:50.545,0,0,0,0,0
2025-04-15 10:28:50.558,0,0,0,0,0
2025-04-15 10:28:50.565,0,0,0,0,0
2025-04-15 10:28:50.585,0,0,0,0,0
2025-04-15 10:28:50.586,20,0,0,0,0
2025-04-15 10:28:50.598,50,5,16,0,0
2025-04-15 10:28:50.610,92,59,44,0,0
2025-04-15 10:28:50.617,145,102,100,19,0
2025-04-15 10:28:50.630,145,130,138,63,0
2025-04-15 10:28:50.653,109,151,155,86,0
2025-04-15 10:28:50.654,121,139,157,146,0
2025-04-15 10:28:50.657,158,135,143,139,26
2025-04-15 10:28:50.670,130,135,132,149,82
2025-04-15 10:28:50.678,140,141,140,156,88
2025-04-15 10:28:50.690,112,134,144,147,112
2025-04-15 10:28:50.698,87,118,137,144,112
2025-04-15 10:28:50.719,122,123,145,142,121
2025-04-15 10:28:50.722,108,92,111,144,121
2025-04-15 10:28:50.723,108,92,111,144,121
2025-04-15 10:28:50.730,76,82,105,127,121
2025-04-15 10:28:50.737,59,58,69,106,107
2025-04-15 10:28:50.750,30,59,66,87,113
2025-04-15 10:28:50.758,51,43,46,59,92
2025-04-15 10:28:50.786,46,59,70,53,68
2025-04-15 10:28:50.787,46,59,70,53,68
2025-04-15 10:28:50.790,54,44,54,59,67
2025-04-15 10:28:50.798,71,50,43,59,51
2025-04-15 10:28:50.809,47,53,41,54,41
2025-04-15 10:28:50.818,38,41,64,65,58
2025-04-15 10:28:50.830,46,51,41,71,54
2025-04-15 10:28:50.854,66,24,53,61,49
2025-04-15 10:28:50.855,60,62,59,60,61
2025-04-15 10:28:50.862,72,60,45,57,54
2025-04-15 10:28:50.870,37,76,69,51,56
2025-04-15 10:28:50.881,81,55,85,74,59
2025-04-15 10:28:50.889,111,84,97,87,61
2025-04-15 10:28:50.901,118,61,78,85,66
2025-04-15 10:28:50.921,134,127,101,117,67
2025-04-15 10:28:50.923,116,129,129,113,86
2025-04-15 10:28:50.926,116,129,129,113,86
2025-04-15 10:28:50.930,129,111,127,148,110
2025-04-15 10:28:50.942,115,142,128,127,130
2025-04-15 10:28:50.950,117,103,119,137,137
2025-04-15 10:28:50.962,111,115,107,119,121
2025-04-15 10:28:50.970,104,115,99,114,129
2025-04-15 10:28:50.994,69,61,81,106,130
2025-04-15 10:28:50.995,39,63,96,98,120
2025-04-15 10:28:51.001,33,31,92,80,112
2025-04-15 10:28:51.010,9,17,48,76,104
2025-04-15 10:28:51.021,0,0,30,21,91
2025-04-15 10:28:51.030,0,0,0,8,71
2025-04-15 10:28:51.041,0,0,0,4,30
2025-04-15 10:28:51.060,0,0,0,0,24
2025-04-15 10:28:51.062,0,0,0,0,0
2025-04-15 10:28:51.070,0,0,0,0,0
2025-04-15 10:28:51.082,0,0,0,0,0
2025-04-15 10:28:51.089,0,0,0,0,0
2025-04-15 10:28:51.101,0,0,0,0,0
2025-04-15 10:28:51.126,0,0,0,0,0
2025-04-15 10:28:51.127,0,0,0,0,0
2025-04-15 10:28:51.130,4,0,0,0,0
2025-04-15 10:28:51.141,55,34,6,0,0
2025-04-15 10:28:51.149,43,49,93,0,0
2025-04-15 10:28:51.162,67,53,87,40,0
2025-04-15 10:28:51.173,62,78,81,44,0
2025-04-15 10:28:51.195,85,78,80,59,42
2025-04-15 10:28:51.196,90,97,99,73,52
2025-04-15 10:28:51.201,103,94,110,70,75
2025-04-15 10:28:51.213,126,91,87,98,57
2025-04-15 10:28:51.222,121,143,103,81,60
2025-04-15 10:28:51.233,116,139,145,107,79
2025-04-15 10:28:51.241,110,119,129,97,108
2025-04-15 10:28:51.262,93,126,133,93,94
2025-04-15 10:28:51.263,93,126,133,93,94
2025-04-15 10:28:51.273,84,95,119,115,97
2025-04-15 10:28:51.281,109,83,84,124,107
2025-04-15 10:28:51.293,80,88,102,114,97
2025-04-15 10:28:51.301,68,69,104,90,129
2025-04-15 10:28:51.328,55,54,55,78,99
2025-04-15 10:28:51.330,29,41,87,70,106
2025-04-15 10:28:51.331,29,41,87,70,106
2025-04-15 10:28:51.333,45,33,56,62,71
2025-04-15 10:28:51.342,33,46,59,38,50
2025-04-15 10:28:51.353,52,47,42,72,52
2025-04-15 10:28:51.362,46,41,62,52,47
2025-04-15 10:28:51.373,29,41,61,40,36
2025-04-15 10:28:51.396,63,65,66,49,38
2025-04-15 10:28:51.397,37,18,57,45,38
2025-04-15 10:28:51.406,36,26,34,47,12
2025-04-15 10:28:51.413,44,60,38,48,51
2025-04-15 10:28:51.422,43,43,54,47,80
2025-04-15 10:28:51.434,55,34,41,69,41
2025-04-15 10:28:51.463,29,44,44,59,11
2025-04-15 10:28:51.465,42,30,34,75,46
2025-04-15 10:28:51.466,37,35,40,47,27
2025-04-15 10:28:51.473,38,45,49,44,54
2025-04-15 10:28:51.485,44,45,51,78,54
2025-04-15 10:28:51.493,43,44,61,26,40
2025-04-15 10:28:51.505,41,45,56,49,47
2025-04-15 10:28:51.529,34,45,35,66,48
2025-04-15 10:28:51.531,33,35,46,56,21
2025-04-15 10:28:51.532,70,58,54,56,30
2025-04-15 10:28:51.545,54,53,44,59,68
2025-04-15 10:28:51.553,59,43,60,51,38
2025-04-15 10:28:51.565,66,58,58,65,25
2025-04-15 10:28:51.573,64,58,67,73,40
2025-04-15 10:28:51.596,78,76,72,73,27
2025-04-15 10:28:51.598,92,80,69,76,65
2025-04-15 10:28:51.605,69,74,78,65,82
2025-04-15 10:28:51.614,64,95,101,70,61
2025-04-15 10:28:51.625,47,59,64,68,90
2025-04-15 10:28:51.633,26,32,59,84,87
2025-04-15 10:28:51.646,35,35,44,76,67
2025-04-15 10:28:51.664,24,51,43,53,77
2025-04-15 10:28:51.666,21,20,45,72,88
2025-04-15 10:28:51.674,29,50,54,28,64
2025-04-15 10:28:51.685,13,31,43,32,43
2025-04-15 10:28:51.693,10,19,39,33,40
2025-04-15 10:28:51.705,7,22,41,40,31
2025-04-15 10:28:51.712,3,23,14,63,25
2025-04-15 10:28:51.732,0,2,12,16,39
2025-04-15 10:28:51.733,0,2,12,16,39
2025-04-15 10:28:51.734,0,0,0,25,45
2025-04-15 10:28:51.745,0,2,17,12,33
2025-04-15 10:28:51.753,0,5,13,29,1
2025-04-15 10:28:51.765,0,0,2,38,35
2025-04-15 10:28:51.777,10,0,2,21,26
2025-04-15 10:28:51.800,32,16,0,0,21
2025-04-15 10:28:51.801,25,29,4,0,12
2025-04-15 10:28:51.805,37,31,56,0,26
2025-04-15 10:28:51.817,34,26,47,34,0
2025-04-15 10:28:51.825,20,33,40,44,0
2025-04-15 10:28:51.837,25,36,46,52,1
2025-04-15 10:28:51.845,38,36,45,36,52
2025-04-15 10:28:51.865,27,38,49,39,57
2025-04-15 10:28:51.866,44,34,35,33,27
2025-04-15 10:28:51.877,27,38,42,44,34
2025-04-15 10:28:51.885,32,39,45,37,36
2025-04-15 10:28:51.897,25,40,44,46,20
2025-04-15 10:28:51.905,39,28,42,38,57
2025-04-15 10:28:51.931,34,35,47,53,61
2025-04-15 10:28:51.932,33,33,46,45,42
2025-04-15 10:28:51.937,37,34,38,30,21
2025-04-15 10:28:51.945,43,37,45,54,17
2025-04-15 10:28:51.958,43,46,46,33,35
2025-04-15 10:28:51.985,49,30,43,56,34
2025-04-15 10:28:52.004,30,29,43,53,58
2025-04-15 10:28:52.005,22,33,36,69,37
2025-04-15 10:28:52.007,26,28,38,41,27
2025-04-15 10:28:52.009,14,25,33,40,30
2025-04-15 10:28:52.017,19,30,30,42,7
2025-04-15 10:28:52.029,20,30,45,55,31
2025-04-15 10:28:52.037,17,29,37,56,59
2025-04-15 10:28:52.048,24,33,28,32,38
2025-04-15 10:28:52.070,19,30,34,40,15
2025-04-15 10:28:52.072,19,27,38,51,39
2025-04-15 10:28:52.077,22,42,30,32,27
2025-04-15 10:28:52.088,23,31,43,50,32
2025-04-15 10:28:52.097,18,30,33,47,48
2025-04-15 10:28:52.109,14,43,35,38,57
2025-04-15 10:28:52.117,22,31,38,37,36
2025-04-15 10:28:52.138,18,22,31,34,55
2025-04-15 10:28:52.140,22,23,34,26,37
2025-04-15 10:28:52.149,22,34,28,26,33
2025-04-15 10:28:52.157,19,20,30,25,30
2025-04-15 10:28:52.168,22,31,37,32,32
2025-04-15 10:28:52.177,9,26,30,38,25
2025-04-15 10:28:52.203,21,30,40,32,51
2025-04-15 10:28:52.205,15,20,34,39,23
2025-04-15 10:28:52.209,16,22,34,23,20
2025-04-15 10:28:52.216,35,26,33,29,34
2025-04-15 10:28:52.228,11,24,35,36,24
2025-04-15 10:28:52.237,18,18,41,34,43
2025-04-15 10:28:52.248,0,23,51,22,32
2025-04-15 10:28:52.268,0,23,39,31,24
2025-04-15 10:28:52.270,0,26,28,29,29
2025-04-15 10:28:52.277,0,26,30,32,32
2025-04-15 10:28:52.288,29,30,34,45,39
2025-04-15 10:28:52.301,80,24,30,38,17
2025-04-15 10:28:52.309,81,20,35,48,34
2025-04-15 10:28:52.341,134,13,24,34,25
2025-04-15 10:28:52.342,62,16,28,22,35
2025-04-15 10:28:52.343,86,14,28,43,23
2025-04-15 10:28:52.349,36,12,28,27,38
2025-04-15 10:28:52.361,0,38,28,32,39
2025-04-15 10:28:52.369,0,15,27,39,26
2025-04-15 10:28:52.381,0,11,19,27,35
2025-04-15 10:28:52.388,0,0,25,35,29
2025-04-15 10:28:52.407,0,0,14,34,19
2025-04-15 10:28:52.409,0,0,7,18,17
2025-04-15 10:28:52.420,0,0,5,16,3
2025-04-15 10:28:52.429,0,33,24,6,16
2025-04-15 10:28:52.440,0,106,22,31,10
2025-04-15 10:28:52.449,0,83,28,30,18
2025-04-15 10:28:52.474,0,143,10,32,36
2025-04-15 10:28:52.476,0,57,20,38,21
2025-04-15 10:28:52.481,0,69,24,26,16
2025-04-15 10:28:52.489,0,31,20,41,24
2025-04-15 10:28:52.501,25,0,40,36,33
2025-04-15 10:28:52.509,22,0,18,47,34
2025-04-15 10:28:52.521,52,0,9,51,41
2025-04-15 10:28:52.543,41,0,11,50,37
2025-04-15 10:28:52.545,53,0,0,45,19
2025-04-15 10:28:52.549,49,0,0,32,41
2025-04-15 10:28:52.561,51,0,0,30,37
2025-04-15 10:28:52.568,56,0,54,27,21
2025-04-15 10:28:52.581,56,0,107,35,14
2025-04-15 10:28:52.609,58,0,79,35,28
2025-04-15 10:28:52.611,64,0,139,25,19
2025-04-15 10:28:52.613,69,0,56,24,28
2025-04-15 10:28:52.621,67,0,59,28,30
2025-04-15 10:28:52.632,60,0,24,27,22
2025-04-15 10:28:52.640,64,21,0,16,31
2025-04-15 10:28:52.653,62,21,0,26,37
2025-04-15 10:28:52.676,57,44,0,29,35
2025-04-15 10:28:52.677,66,46,0,22,28
2025-04-15 10:28:52.681,69,52,0,17,37
2025-04-15 10:28:52.693,66,52,0,21,29
2025-04-15 10:28:52.700,68,53,0,32,13
2025-04-15 10:28:52.712,61,55,0,28,29
2025-04-15 10:28:52.721,70,58,0,19,28
2025-04-15 10:28:52.742,66,61,0,24,28
2025-04-15 10:28:52.744,66,61,0,24,28
2025-04-15 10:28:52.745,70,67,0,22,19
2025-04-15 10:28:52.753,77,76,0,34,26
2025-04-15 10:28:52.761,71,74,14,20,27
2025-04-15 10:28:52.773,79,72,31,52,15
2025-04-15 10:28:52.781,74,94,43,20,7
2025-04-15 10:28:52.811,84,86,58,7,27
2025-04-15 10:28:52.813,88,88,69,17,29
2025-04-15 10:28:52.814,93,104,91,0,35
2025-04-15 10:28:52.820,80,82,91,24,34
2025-04-15 10:28:52.833,65,67,76,46,43
2025-04-15 10:28:52.844,74,58,62,69,54
2025-04-15 10:28:52.852,64,63,54,136,45
2025-04-15 10:28:52.878,53,40,65,59,11
2025-04-15 10:28:52.879,56,49,54,137,6
2025-04-15 10:28:52.883,35,39,54,49,2
2025-04-15 10:28:52.893,28,34,44,0,11
2025-04-15 10:28:52.904,3,31,31,0,13
2025-04-15 10:28:52.913,0,0,13,0,0
2025-04-15 10:28:52.920,0,0,0,0,8
2025-04-15 10:28:52.944,0,0,0,0,0
2025-04-15 10:28:52.946,1,0,0,0,0
2025-04-15 10:28:52.953,33,24,11,0,0
2025-04-15 10:28:52.964,53,60,47,0,0
2025-04-15 10:28:52.972,46,61,63,0,0
2025-04-15 10:28:52.984,57,78,69,0,0
2025-04-15 10:28:52.992,65,74,70,0,0
2025-04-15 10:28:53.011,60,81,77,0,112
2025-04-15 10:28:53.012,87,89,81,0,55
2025-04-15 10:28:53.025,102,97,87,6,123
2025-04-15 10:28:53.032,85,97,90,34,82
2025-04-15 10:28:53.045,118,123,105,45,36
2025-04-15 10:28:53.052,122,120,115,74,52
2025-04-15 10:28:53.079,88,110,108,89,0
2025-04-15 10:28:53.081,77,91,100,96,0
2025-04-15 10:28:53.084,79,77,80,93,0
2025-04-15 10:28:53.093,69,66,67,88,0
2025-04-15 10:28:53.104,71,64,63,71,28
2025-04-15 10:28:53.112,73,63,79,60,18
2025-04-15 10:28:53.124,67,71,71,58,15
2025-04-15 10:28:53.146,73,73,64,62,5
2025-04-15 10:28:53.148,59,72,61,59,4
2025-04-15 10:28:53.156,58,65,65,61,10
2025-04-15 10:28:53.164,60,70,62,62,18
2025-04-15 10:28:53.176,61,83,67,63,25
2025-04-15 10:28:53.184,72,71,56,62,30
2025-04-15 10:28:53.195,69,65,58,60,32
2025-04-15 10:28:53.215,71,78,62,65,41
2025-04-15 10:28:53.216,69,73,60,69,38
2025-04-15 10:28:53.224,75,76,62,60,42
2025-04-15 10:28:53.236,61,74,61,63,49
2025-04-15 10:28:53.243,76,86,63,66,50
2025-04-15 10:28:53.256,74,97,75,64,49
2025-04-15 10:28:53.281,81,87,67,69,49
2025-04-15 10:28:53.283,75,93,78,66,55
2025-04-15 10:28:53.285,86,84,68,68,49
2025-04-15 10:28:53.296,89,86,67,69,57
2025-04-15 10:28:53.305,83,93,74,67,53
2025-04-15 10:28:53.316,97,98,73,73,58
2025-04-15 10:28:53.325,106,105,82,80,60
2025-04-15 10:28:53.352,111,112,78,79,58
2025-04-15 10:28:53.354,120,116,88,87,64
2025-04-15 10:28:53.356,131,122,99,90,64
2025-04-15 10:28:53.365,135,131,97,86,68
2025-04-15 10:28:53.376,156,155,118,107,70
2025-04-15 10:28:53.389,159,163,131,115,84
2025-04-15 10:28:53.397,162,165,132,120,93
2025-04-15 10:28:53.425,159,163,142,133,95
2025-04-15 10:28:53.427,156,163,144,145,102
2025-04-15 10:28:53.429,155,159,137,150,113
2025-04-15 10:28:53.436,151,158,134,145,130
2025-04-15 10:28:53.448,145,148,132,141,124
2025-04-15 10:28:53.456,121,142,119,134,127
2025-04-15 10:28:53.468,101,114,102,123,124
2025-04-15 10:28:53.494,71,91,82,107,111
2025-04-15 10:28:53.496,61,71,58,91,92
2025-04-15 10:28:53.497,51,60,41,76,89
2025-04-15 10:28:53.508,27,40,30,52,73
2025-04-15 10:28:53.517,6,23,13,37,52
2025-04-15 10:28:53.529,0,0,0,11,37
2025-04-15 10:28:53.536,0,0,0,0,10
2025-04-15 10:28:53.540,0,0,0,0,10
2025-04-15 10:28:53.564,4,3,0,0,0
2025-04-15 10:28:53.566,8,7,0,0,0
2025-04-15 10:28:53.568,20,14,0,0,0
2025-04-15 10:28:53.576,29,25,0,0,0
2025-04-15 10:28:53.588,41,28,0,0,0
2025-04-15 10:28:53.596,53,44,0,0,0
2025-04-15 10:28:53.608,65,58,7,0,0
2025-04-15 10:28:53.636,91,66,22,0,0
2025-04-15 10:28:53.638,100,83,33,8,0
2025-04-15 10:28:53.640,119,98,52,16,0
2025-04-15 10:28:53.649,141,131,60,27,0
2025-04-15 10:28:53.656,176,144,93,53,0
2025-04-15 10:28:53.669,191,176,129,82,8
2025-04-15 10:28:53.679,203,195,154,102,35
2025-04-15 10:28:53.710,201,198,158,128,52
2025-04-15 10:28:53.712,194,206,171,158,93
2025-04-15 10:28:53.714,204,201,178,163,117
2025-04-15 10:28:53.719,198,202,171,168,136
2025-04-15 10:28:53.728,195,201,185,173,146
2025-04-15 10:28:53.740,186,203,167,171,147
2025-04-15 10:28:53.748,198,208,155,163,140
2025-04-15 10:28:53.776,183,199,161,156,159
2025-04-15 10:28:53.778,172,189,145,158,141
2025-04-15 10:28:53.780,170,186,151,167,150
2025-04-15 10:28:53.788,170,168,154,170,135
2025-04-15 10:28:53.799,162,180,141,134,141
2025-04-15 10:28:53.809,144,166,128,136,128
2025-04-15 10:28:53.820,139,159,136,150,139
2025-04-15 10:28:53.847,136,146,108,127,124
2025-04-15 10:28:53.849,132,133,111,125,124
2025-04-15 10:28:53.850,135,135,116,118,110
2025-04-15 10:28:53.860,125,132,101,124,111
2025-04-15 10:28:53.867,125,134,87,95,105
2025-04-15 10:28:53.880,129,144,95,101,99
2025-04-15 10:28:53.887,122,133,105,95,88
2025-04-15 10:28:53.918,122,133,99,102,73
2025-04-15 10:28:53.920,126,140,100,95,78
2025-04-15 10:28:53.922,124,130,95,97,67
2025-04-15 10:28:53.929,118,123,90,94,73
2025-04-15 10:28:53.940,127,137,99,104,64
2025-04-15 10:28:53.947,146,138,105,114,71
2025-04-15 10:28:53.959,166,140,114,104,65
2025-04-15 10:28:53.988,142,150,109,118,79
2025-04-15 10:28:53.991,166,168,124,117,88
2025-04-15 10:28:53.992,174,174,139,130,84
2025-04-15 10:28:54.000,173,177,138,128,81
2025-04-15 10:28:54.012,170,183,157,136,94
2025-04-15 10:28:54.020,180,192,161,161,95
2025-04-15 10:28:54.032,173,189,147,146,135
2025-04-15 10:28:54.058,173,194,148,163,143
2025-04-15 10:28:54.061,181,189,135,155,135
2025-04-15 10:28:54.063,157,173,138,150,133
2025-04-15 10:28:54.072,159,173,126,148,127
2025-04-15 10:28:54.080,125,151,125,148,151
2025-04-15 10:28:54.092,108,139,97,132,120
2025-04-15 10:28:54.099,91,101,99,123,132
2025-04-15 10:28:54.128,45,102,68,97,101
2025-04-15 10:28:54.130,9,44,28,77,116
2025-04-15 10:28:54.132,0,35,9,33,101
2025-04-15 10:28:54.140,0,29,0,0,56
2025-04-15 10:28:54.152,0,0,0,0,4
2025-04-15 10:28:54.160,0,0,0,0,0
2025-04-15 10:28:54.172,0,0,0,0,0
2025-04-15 10:28:54.208,0,0,0,0,0
2025-04-15 10:28:54.210,0,0,0,0,0
2025-04-15 10:28:54.212,0,0,0,0,0
2025-04-15 10:28:54.213,0,0,0,0,0
2025-04-15 10:28:54.220,0,0,0,0,0
2025-04-15 10:28:54.231,14,30,0,0,0
2025-04-15 10:28:54.239,23,34,0,0,0
2025-04-15 10:28:54.252,19,32,0,0,0
2025-04-15 10:28:54.279,27,42,1,0,0
2025-04-15 10:28:54.281,32,37,12,0,0
2025-04-15 10:28:54.282,28,37,8,8,0
2025-04-15 10:28:54.291,43,53,0,18,0
2025-04-15 10:28:54.300,50,53,12,5,0
2025-04-15 10:28:54.311,72,83,46,10,0
2025-04-15 10:28:54.319,65,78,32,2,23
2025-04-15 10:28:54.349,88,84,62,0,2
2025-04-15 10:28:54.350,104,97,64,28,15
2025-04-15 10:28:54.352,99,113,70,51,0
2025-04-15 10:28:54.363,122,113,68,42,24
2025-04-15 10:28:54.371,120,141,101,46,24
2025-04-15 10:28:54.383,115,135,114,80,57
2025-04-15 10:28:54.391,123,143,118,101,48
2025-04-15 10:28:54.417,121,138,114,97,61
2025-04-15 10:28:54.419,128,143,127,81,80
2025-04-15 10:28:54.423,121,132,114,96,73
2025-04-15 10:28:54.431,125,135,117,102,81
2025-04-15 10:28:54.443,121,145,128,119,97
2025-04-15 10:28:54.452,126,140,118,109,122
2025-04-15 10:28:54.462,123,137,113,113,107
2025-04-15 10:28:54.488,118,136,99,128,108
2025-04-15 10:28:54.490,117,120,109,138,129
2025-04-15 10:28:54.492,116,119,101,121,123
2025-04-15 10:28:54.503,104,128,103,124,107
2025-04-15 10:28:54.511,103,123,111,108,116
2025-04-15 10:28:54.523,108,120,113,127,94
2025-04-15 10:28:54.532,94,108,110,118,115
2025-04-15 10:28:54.564,95,105,98,120,121
2025-04-15 10:28:54.566,95,105,98,120,121
2025-04-15 10:28:54.568,67,95,90,115,99
2025-04-15 10:28:54.569,69,85,75,105,117
2025-04-15 10:28:54.571,59,72,68,100,99
2025-04-15 10:28:54.584,58,74,66,92,109
2025-04-15 10:28:54.591,50,73,58,78,89
2025-04-15 10:28:54.607,62,80,54,85,75
2025-04-15 10:28:54.611,67,72,74,83,82
2025-04-15 10:28:54.632,78,89,61,60,58
2025-04-15 10:28:54.636,102,108,89,66,48
2025-04-15 10:28:54.643,107,124,101,85,54
2025-04-15 10:28:54.655,109,127,101,91,68
2025-04-15 10:28:54.663,109,105,101,106,63
2025-04-15 10:28:54.675,100,115,115,102,93
2025-04-15 10:28:54.699,94,109,104,122,104
2025-04-15 10:28:54.701,80,109,116,122,111
2025-04-15 10:28:54.704,78,100,105,110,108
2025-04-15 10:28:54.715,82,95,100,106,88
2025-04-15 10:28:54.723,60,77,82,110,103
2025-04-15 10:28:54.735,53,48,66,80,107
2025-04-15 10:28:54.743,24,36,64,66,86
2025-04-15 10:28:54.768,0,13,31,58,90
2025-04-15 10:28:54.770,0,0,6,24,73
2025-04-15 10:28:54.774,0,0,0,22,41
2025-04-15 10:28:54.783,0,0,0,0,39
2025-04-15 10:28:54.795,0,0,0,0,11
2025-04-15 10:28:54.803,0,0,0,0,0
2025-04-15 10:28:54.815,29,0,0,0,0
2025-04-15 10:28:54.835,8,0,0,0,0
2025-04-15 10:28:54.836,45,0,0,0,0
2025-04-15 10:28:54.844,24,0,0,0,0
2025-04-15 10:28:54.854,0,0,0,0,0
2025-04-15 10:28:54.863,0,0,0,0,0
2025-04-15 10:28:54.874,0,0,0,0,0
2025-04-15 10:28:54.882,0,0,0,0,0
2025-04-15 10:28:54.900,0,0,0,0,0
2025-04-15 10:28:54.903,0,0,0,0,0
2025-04-15 10:28:54.915,0,0,0,0,0
2025-04-15 10:28:54.922,0,0,0,0,0
2025-04-15 10:28:54.935,0,10,0,0,0
2025-04-15 10:28:54.943,0,3,0,9,0
2025-04-15 10:28:54.966,0,61,0,0,0
2025-04-15 10:28:54.967,0,10,0,0,1
2025-04-15 10:28:54.976,0,31,0,0,0
2025-04-15 10:28:54.983,0,22,0,0,0
2025-04-15 10:28:54.995,0,0,0,0,0
2025-04-15 10:28:55.002,0,0,0,0,0
2025-04-15 10:28:55.015,0,0,0,0,0
2025-04-15 10:28:55.033,0,0,0,0,0
2025-04-15 10:28:55.034,0,0,0,0,0
2025-04-15 10:28:55.043,0,0,0,0,0
2025-04-15 10:28:55.060,9,0,0,0,0
2025-04-15 10:28:55.063,22,0,0,0,0
2025-04-15 10:28:55.076,28,0,4,0,0
