Timestamp,PPG1,PPG2,PPG3,PPG4,PPG5
2025-04-16 16:47:46.341,95315,14303,18018,83941,97861
2025-04-16 16:47:46.361,116645,14297,18009,94081,121742
2025-04-16 16:47:46.363,116651,14299,18010,94083,121723
2025-04-16 16:47:46.363,116645,14311,18018,94069,121691
2025-04-16 16:47:46.364,116642,14331,18035,94083,121676
2025-04-16 16:47:46.365,116642,14343,18049,94095,121674
2025-04-16 16:47:46.370,116626,14360,18065,94100,121671
2025-04-16 16:47:46.378,116636,14358,18068,94095,121665
2025-04-16 16:47:46.390,116636,14372,18074,94097,121662
2025-04-16 16:47:46.398,116651,14382,18085,94104,121674
2025-04-16 16:47:46.410,116647,14383,18092,94127,121673
2025-04-16 16:47:46.426,116663,14394,18098,94139,121698
2025-04-16 16:47:46.430,116670,14392,18098,94153,121725
2025-04-16 16:47:46.438,116662,14393,18104,94153,121721
2025-04-16 16:47:46.450,116639,14396,18105,94134,121707
2025-04-16 16:47:46.458,116643,14399,18108,94132,121699
2025-04-16 16:47:46.470,116637,14400,18102,94122,121673
2025-04-16 16:47:46.488,116636,14400,18114,94113,121658
2025-04-16 16:47:46.490,116642,14408,18121,94122,121684
2025-04-16 16:47:46.501,116653,14416,18122,94131,121681
2025-04-16 16:47:46.518,116635,14417,18127,94140,121679
2025-04-16 16:47:46.522,116635,14417,18127,94140,121679
2025-04-16 16:47:46.526,116635,14417,18127,94140,121679
2025-04-16 16:47:46.526,116635,14417,18127,94140,121679
2025-04-16 16:47:46.530,116635,14417,18127,94140,121679
2025-04-16 16:47:46.533,116635,14417,18127,94140,121679
2025-04-16 16:47:46.534,116635,14417,18127,94140,121679
2025-04-16 16:47:46.550,116635,14417,18127,94140,121679
2025-04-16 16:47:46.551,116635,14417,18127,94140,121679
2025-04-16 16:47:46.552,116474,14432,18147,94026,121529
2025-04-16 16:47:46.554,116465,14434,18154,94026,121535
2025-04-16 16:47:46.562,116451,14437,18150,93997,121521
2025-04-16 16:47:46.574,116437,14436,18154,93993,121491
2025-04-16 16:47:46.586,116412,14438,18150,93950,121477
2025-04-16 16:47:46.593,116382,14436,18143,93938,121444
2025-04-16 16:47:46.613,116360,14427,18147,93929,121416
2025-04-16 16:47:46.614,116348,14426,18140,93904,121398
2025-04-16 16:47:46.626,116340,14419,18134,93900,121363
2025-04-16 16:47:46.634,116311,14417,18128,93894,121378
2025-04-16 16:47:46.646,116290,14410,18126,93888,121370
2025-04-16 16:47:46.654,116277,14401,18116,93866,121349
2025-04-16 16:47:46.676,116265,14390,18104,93843,121324
2025-04-16 16:47:46.677,116250,14388,18100,93837,121321
2025-04-16 16:47:46.686,116258,14377,18088,93830,121334
2025-04-16 16:47:46.693,116248,14372,18082,93831,121316
2025-04-16 16:47:46.707,116263,14366,18073,93840,121332
2025-04-16 16:47:46.714,116262,14360,18067,93825,121341
2025-04-16 16:47:46.738,116272,14356,18059,93840,121349
2025-04-16 16:47:46.740,116296,14351,18049,93836,121353
2025-04-16 16:47:46.741,116296,14351,18049,93836,121353
2025-04-16 16:47:46.742,116296,14351,18049,93836,121353
2025-04-16 16:47:46.745,116325,14348,18047,93843,121382
2025-04-16 16:47:46.754,116354,14351,18051,93857,121417
2025-04-16 16:47:46.766,116367,14353,18049,93880,121438
2025-04-16 16:47:46.773,116385,14357,18051,93890,121455
2025-04-16 16:47:46.786,116387,14353,18049,93893,121468
2025-04-16 16:47:46.801,116375,14355,18046,93892,121453
2025-04-16 16:47:46.806,116368,14355,18051,93850,121428
2025-04-16 16:47:46.818,116360,14354,18049,93852,121415
2025-04-16 16:47:46.826,116352,14358,18055,93841,121404
2025-04-16 16:47:46.838,116353,14366,18059,93839,121411
2025-04-16 16:47:46.846,116341,14368,18057,93833,121394
2025-04-16 16:47:46.864,116345,14372,18062,93832,121397
2025-04-16 16:47:46.866,116323,14380,18066,93829,121392
2025-04-16 16:47:46.878,116311,14377,18071,93807,121381
2025-04-16 16:47:46.885,116287,14381,18067,93787,121346
2025-04-16 16:47:46.897,116265,14381,18076,93757,121327
2025-04-16 16:47:46.906,116252,14381,18081,93760,121313
2025-04-16 16:47:46.926,116233,14388,18081,93733,121294
2025-04-16 16:47:46.927,116223,14395,18088,93740,121290
2025-04-16 16:47:46.938,116228,14401,18097,93751,121304
2025-04-16 16:47:46.946,116230,14403,18105,93746,121314
2025-04-16 16:47:46.958,116222,14407,18107,93741,121303
2025-04-16 16:47:46.965,116225,14411,18113,93725,121261
2025-04-16 16:47:46.989,116221,14416,18114,93702,121264
2025-04-16 16:47:46.990,116227,14418,18123,93714,121257
2025-04-16 16:47:46.997,116238,14429,18135,93715,121279
2025-04-16 16:47:47.005,116258,14434,18138,93726,121272
2025-04-16 16:47:47.018,116259,14440,18144,93729,121300
2025-04-16 16:47:47.025,116262,14446,18150,93760,121324
2025-04-16 16:47:47.037,116268,14449,18155,93742,121311
2025-04-16 16:47:47.052,116277,14450,18158,93742,121300
2025-04-16 16:47:47.058,116274,14454,18164,93730,121294
2025-04-16 16:47:47.070,116268,14462,18168,93717,121293
2025-04-16 16:47:47.078,116287,14469,18178,93748,121328
2025-04-16 16:47:47.090,116310,14479,18185,93751,121334
2025-04-16 16:47:47.097,116321,14484,18195,93778,121347
2025-04-16 16:47:47.115,116337,14496,18204,93786,121374
2025-04-16 16:47:47.118,116336,14496,18208,93799,121383
2025-04-16 16:47:47.129,116329,14494,18207,93795,121389
2025-04-16 16:47:47.141,116313,14494,18206,93771,121356
2025-04-16 16:47:47.142,116313,14494,18206,93771,121356
2025-04-16 16:47:47.149,116311,14503,18217,93774,121339
2025-04-16 16:47:47.158,116327,14507,18219,93761,121359
2025-04-16 16:47:47.178,116330,14516,18228,93778,121358
2025-04-16 16:47:47.179,116331,14518,18231,93788,121380
2025-04-16 16:47:47.190,116329,14521,18238,93805,121383
2025-04-16 16:47:47.197,116292,14512,18233,93796,121386
2025-04-16 16:47:47.210,116267,14508,18224,93752,121336
2025-04-16 16:47:47.217,116234,14505,18218,93699,121275
2025-04-16 16:47:47.241,116212,14503,18217,93689,121267
2025-04-16 16:47:47.242,116208,14499,18211,93678,121255
2025-04-16 16:47:47.249,116187,14495,18206,93661,121235
2025-04-16 16:47:47.257,116166,14491,18206,93668,121204
2025-04-16 16:47:47.269,116145,14485,18196,93659,121220
2025-04-16 16:47:47.281,116113,14475,18184,93635,121200
2025-04-16 16:47:47.290,116086,14465,18175,93613,121172
2025-04-16 16:47:47.304,116067,14461,18165,93596,121148
2025-04-16 16:47:47.310,116054,14452,18153,93586,121117
2025-04-16 16:47:47.321,116044,14440,18144,93566,121109
2025-04-16 16:47:47.330,116033,14432,18131,93557,121109
2025-04-16 16:47:47.341,116037,14425,18126,93563,121117
2025-04-16 16:47:47.350,116035,14418,18119,93575,121122
2025-04-16 16:47:47.369,116045,14417,18108,93585,121136
2025-04-16 16:47:47.371,116054,14409,18105,93597,121160
2025-04-16 16:47:47.382,116067,14408,18097,93625,121174
2025-04-16 16:47:47.390,116089,14407,18094,93607,121198
2025-04-16 16:47:47.401,116096,14407,18094,93641,121224
2025-04-16 16:47:47.410,116113,14402,18092,93662,121231
2025-04-16 16:47:47.431,116124,14399,18084,93676,121236
2025-04-16 16:47:47.433,116135,14402,18084,93679,121255
2025-04-16 16:47:47.441,116130,14395,18082,93683,121262
2025-04-16 16:47:47.449,116146,14396,18078,93687,121239
2025-04-16 16:47:47.462,116156,14396,18078,93694,121253
2025-04-16 16:47:47.469,116177,14400,18083,93703,121283
2025-04-16 16:47:47.494,116176,14405,18082,93712,121293
2025-04-16 16:47:47.495,116175,14403,18081,93716,121308
2025-04-16 16:47:47.502,116175,14405,18086,93727,121306
2025-04-16 16:47:47.514,116184,14398,18080,93733,121308
2025-04-16 16:47:47.521,116168,14403,18081,93727,121300
2025-04-16 16:47:47.534,116176,14405,18078,93727,121296
2025-04-16 16:47:47.541,116172,14405,18084,93725,121296
2025-04-16 16:47:47.557,116166,14407,18080,93721,121292
2025-04-16 16:47:47.562,116149,14406,18081,93703,121255
2025-04-16 16:47:47.573,116134,14403,18071,93707,121263
2025-04-16 16:47:47.582,116133,14406,18077,93697,121246
2025-04-16 16:47:47.593,116126,14400,18077,93677,121223
2025-04-16 16:47:47.602,116105,14401,18075,93670,121222
2025-04-16 16:47:47.620,116112,14407,18075,93681,121232
2025-04-16 16:47:47.622,116100,14400,18079,93675,121224
2025-04-16 16:47:47.633,116115,14408,18082,93675,121252
2025-04-16 16:47:47.641,116116,14411,18084,93687,121265
2025-04-16 16:47:47.653,116115,14409,18086,93687,121263
2025-04-16 16:47:47.660,116090,14411,18078,93700,121250
2025-04-16 16:47:47.683,116082,14409,18085,93691,121251
2025-04-16 16:47:47.684,116068,14409,18084,93674,121240
2025-04-16 16:47:47.693,116068,14410,18082,93673,121231
2025-04-16 16:47:47.701,116066,14407,18080,93651,121232
2025-04-16 16:47:47.713,116063,14414,18084,93651,121209
2025-04-16 16:47:47.721,116043,14412,18083,93651,121204
2025-04-16 16:47:47.746,116042,14412,18084,93628,121195
2025-04-16 16:47:47.748,116016,14412,18083,93602,121155
2025-04-16 16:47:47.753,116010,14411,18081,93598,121143
2025-04-16 16:47:47.765,116014,14417,18085,93602,121147
2025-04-16 16:47:47.774,116010,14420,18089,93601,121145
2025-04-16 16:47:47.785,116008,14425,18089,93596,121150
2025-04-16 16:47:47.794,115998,14424,18091,93604,121159
2025-04-16 16:47:47.810,115990,14424,18091,93605,121157
2025-04-16 16:47:47.813,115988,14427,18092,93591,121144
2025-04-16 16:47:47.826,115961,14424,18093,93589,121131
2025-04-16 16:47:47.833,115966,14422,18094,93579,121110
2025-04-16 16:47:47.845,115958,14432,18100,93576,121107
2025-04-16 16:47:47.853,115953,14431,18104,93576,121124
2025-04-16 16:47:47.874,115952,14436,18103,93585,121121
2025-04-16 16:47:47.875,115951,14436,18111,93569,121130
2025-04-16 16:47:47.885,115936,14440,18110,93575,121113
2025-04-16 16:47:47.894,115911,14433,18104,93561,121105
2025-04-16 16:47:47.906,115918,14430,18100,93538,121080
2025-04-16 16:47:47.913,115870,14424,18089,93532,121070
2025-04-16 16:47:47.937,115855,14418,18085,93520,121062
2025-04-16 16:47:47.938,115843,14408,18077,93513,121050
2025-04-16 16:47:47.946,115807,14398,18066,93497,121007
2025-04-16 16:47:47.949,115807,14398,18066,93497,121007
2025-04-16 16:47:47.953,115780,14385,18046,93475,120989
2025-04-16 16:47:47.966,115760,14377,18035,93453,120980
2025-04-16 16:47:47.977,115758,14370,18022,93454,120971
2025-04-16 16:47:47.985,115753,14357,18014,93449,120988
2025-04-16 16:47:48.001,115763,14348,17998,93456,120989
2025-04-16 16:47:48.005,115767,14342,17986,93471,120994
2025-04-16 16:47:48.017,115775,14336,17982,93476,120998
2025-04-16 16:47:48.024,115796,14332,17978,93484,121023
2025-04-16 16:47:48.037,115802,14332,17968,93499,121051
2025-04-16 16:47:48.046,115822,14330,17967,93503,121058
2025-04-16 16:47:48.064,115860,14324,17967,93538,121083
2025-04-16 16:47:48.065,115869,14328,17964,93563,121122
2025-04-16 16:47:48.077,115876,14321,17963,93565,121118
2025-04-16 16:47:48.085,115902,14321,17963,93571,121126
2025-04-16 16:47:48.097,115900,14324,17959,93589,121133
2025-04-16 16:47:48.105,115900,14325,17960,93613,121154
2025-04-16 16:47:48.127,115921,14326,17961,93611,121152
2025-04-16 16:47:48.129,115925,14329,17961,93621,121154
2025-04-16 16:47:48.137,115921,14329,17963,93624,121160
2025-04-16 16:47:48.144,115931,14332,17966,93634,121154
2025-04-16 16:47:48.157,115932,14338,17968,93641,121162
2025-04-16 16:47:48.166,115943,14335,17971,93646,121153
2025-04-16 16:47:48.189,115924,14339,17970,93636,121150
2025-04-16 16:47:48.190,115929,14342,17973,93640,121151
2025-04-16 16:47:48.197,115928,14342,17976,93646,121143
2025-04-16 16:47:48.209,115912,14347,17974,93653,121134
2025-04-16 16:47:48.217,115916,14348,17981,93655,121125
2025-04-16 16:47:48.229,115907,14350,17980,93652,121116
2025-04-16 16:47:48.236,115921,14348,17979,93646,121105
2025-04-16 16:47:48.253,115909,14354,17983,93644,121098
2025-04-16 16:47:48.257,115890,14352,17985,93624,121091
2025-04-16 16:47:48.269,115886,14356,17986,93633,121074
2025-04-16 16:47:48.277,115881,14358,17989,93639,121074
2025-04-16 16:47:48.289,115877,14362,17994,93623,121059
2025-04-16 16:47:48.297,115892,14366,17998,93634,121069
2025-04-16 16:47:48.315,115880,14375,18002,93640,121068
2025-04-16 16:47:48.317,115885,14372,18006,93645,121050
2025-04-16 16:47:48.330,115880,14373,18006,93642,121037
2025-04-16 16:47:48.337,115875,14381,18009,93644,121051
2025-04-16 16:47:48.349,115871,14386,18018,93646,121040
2025-04-16 16:47:48.356,115881,14391,18024,93641,121043
2025-04-16 16:47:48.378,115888,14392,18031,93653,121047
2025-04-16 16:47:48.379,115870,14401,18038,93676,121064
2025-04-16 16:47:48.389,115889,14408,18045,93664,121064
2025-04-16 16:47:48.397,115882,14407,18046,93663,121031
2025-04-16 16:47:48.409,115876,14415,18050,93673,121035
2025-04-16 16:47:48.417,115884,14420,18054,93665,121031
2025-04-16 16:47:48.440,115871,14417,18058,93667,121055
2025-04-16 16:47:48.442,115879,14428,18064,93662,121039
2025-04-16 16:47:48.449,115871,14429,18069,93673,121012
2025-04-16 16:47:48.461,115866,14437,18070,93663,121011
2025-04-16 16:47:48.469,115851,14435,18076,93660,121012
2025-04-16 16:47:48.481,115858,14443,18082,93657,121003
2025-04-16 16:47:48.489,115838,14448,18091,93657,121007
2025-04-16 16:47:48.504,115846,14448,18094,93667,121009
2025-04-16 16:47:48.509,115832,14453,18098,93655,120992
2025-04-16 16:47:48.521,115827,14454,18103,93654,120990
2025-04-16 16:47:48.530,115820,14460,18103,93664,120986
2025-04-16 16:47:48.540,115823,14460,18104,93657,120982
2025-04-16 16:47:48.548,115803,14458,18108,93653,120982
2025-04-16 16:47:48.567,115783,14459,18106,93648,120954
2025-04-16 16:47:48.569,115782,14460,18101,93627,120943
2025-04-16 16:47:48.581,115759,14449,18096,93633,120941
2025-04-16 16:47:48.589,115754,14444,18090,93609,120929
2025-04-16 16:47:48.601,115714,14440,18082,93623,120913
2025-04-16 16:47:48.609,115704,14434,18076,93609,120903
2025-04-16 16:47:48.630,115676,14426,18061,93594,120895
2025-04-16 16:47:48.631,115668,14416,18055,93591,120876
2025-04-16 16:47:48.641,115660,14410,18038,93584,120850
2025-04-16 16:47:48.653,115651,14404,18033,93590,120864
2025-04-16 16:47:48.660,115654,14397,18021,93602,120865
2025-04-16 16:47:48.672,115678,14387,18014,93616,120885
2025-04-16 16:47:48.694,115675,14384,18004,93627,120909
2025-04-16 16:47:48.695,115688,14375,17991,93633,120908
2025-04-16 16:47:48.701,115701,14367,17987,93643,120918
2025-04-16 16:47:48.713,115704,14367,17979,93668,120909
2025-04-16 16:47:48.721,115716,14367,17976,93687,120938
2025-04-16 16:47:48.732,115743,14368,17975,93720,120957
2025-04-16 16:47:48.741,115771,14362,17973,93744,120986
2025-04-16 16:47:48.756,115781,14359,17969,93750,121015
2025-04-16 16:47:48.757,115781,14359,17969,93750,121015
2025-04-16 16:47:48.761,115811,14368,17972,93779,121046
2025-04-16 16:47:48.772,115830,14370,17972,93785,121053
2025-04-16 16:47:48.781,115845,14368,17974,93806,121061
2025-04-16 16:47:48.793,115841,14373,17976,93824,121076
2025-04-16 16:47:48.801,115847,14374,17976,93836,121067
2025-04-16 16:47:48.819,115859,14374,17979,93825,121080
2025-04-16 16:47:48.821,115848,14380,17977,93837,121083
2025-04-16 16:47:48.833,115863,14387,17984,93842,121070
2025-04-16 16:47:48.841,115873,14392,17989,93843,121093
2025-04-16 16:47:48.853,115882,14396,17997,93856,121091
2025-04-16 16:47:48.860,115888,14396,18002,93855,121095
2025-04-16 16:47:48.882,115880,14408,18006,93857,121092
2025-04-16 16:47:48.883,115890,14406,18008,93854,121102
2025-04-16 16:47:48.892,115885,14412,18014,93860,121089
2025-04-16 16:47:48.905,115875,14419,18016,93846,121085
2025-04-16 16:47:48.913,115882,14425,18022,93863,121101
2025-04-16 16:47:48.925,115894,14428,18031,93847,121093
2025-04-16 16:47:48.944,115877,14433,18029,93850,121089
2025-04-16 16:47:48.946,115889,14445,18036,93846,121100
2025-04-16 16:47:48.952,115896,14447,18044,93850,121097
2025-04-16 16:47:48.964,115883,14449,18043,93831,121083
2025-04-16 16:47:48.973,115890,14456,18050,93838,121089
2025-04-16 16:47:48.985,115883,14460,18053,93835,121070
2025-04-16 16:47:48.992,115876,14463,18059,93837,121085
2025-04-16 16:47:49.008,115877,14467,18070,93819,121086
2025-04-16 16:47:49.013,115881,14471,18072,93818,121072
2025-04-16 16:47:49.024,115883,14473,18069,93819,121077
2025-04-16 16:47:49.033,115871,14473,18075,93789,121050
2025-04-16 16:47:49.044,115858,14476,18084,93811,121061
2025-04-16 16:47:49.053,115862,14488,18086,93799,121055
2025-04-16 16:47:49.072,115863,14489,18091,93783,121067
2025-04-16 16:47:49.073,115871,14496,18098,93787,121070
2025-04-16 16:47:49.085,115879,14497,18100,93788,121055
2025-04-16 16:47:49.092,115880,14503,18106,93780,121058
2025-04-16 16:47:49.105,115860,14506,18109,93770,121048
2025-04-16 16:47:49.113,115879,14513,18118,93776,121053
2025-04-16 16:47:49.134,115878,14515,18119,93769,121036
2025-04-16 16:47:49.137,115868,14516,18124,93759,121043
2025-04-16 16:47:49.145,115864,14521,18124,93764,121043
2025-04-16 16:47:49.157,115870,14529,18132,93754,121033
2025-04-16 16:47:49.165,115866,14532,18144,93766,121051
2025-04-16 16:47:49.176,115887,14542,18150,93768,121027
2025-04-16 16:47:49.197,115886,14544,18153,93778,121059
2025-04-16 16:47:49.198,115883,14547,18154,93772,121053
2025-04-16 16:47:49.204,115876,14548,18155,93767,121039
2025-04-16 16:47:49.217,115891,14551,18160,93763,121040
2025-04-16 16:47:49.225,115885,14551,18164,93757,121021
2025-04-16 16:47:49.237,115884,14558,18169,93755,121029
2025-04-16 16:47:49.244,115887,14561,18178,93764,121038
2025-04-16 16:47:49.260,115917,14572,18185,93787,121066
2025-04-16 16:47:49.265,115919,14580,18186,93819,121095
2025-04-16 16:47:49.277,115910,14577,18196,93832,121110
2025-04-16 16:47:49.285,115899,14575,18188,93842,121125
2025-04-16 16:47:49.296,115891,14573,18185,93850,121117
2025-04-16 16:47:49.304,115894,14565,18177,93864,121117
2025-04-16 16:47:49.324,115896,14563,18177,93873,121114
2025-04-16 16:47:49.325,115899,14559,18169,93896,121130
2025-04-16 16:47:49.337,115894,14560,18161,93909,121171
2025-04-16 16:47:49.344,115893,14548,18149,93934,121173
2025-04-16 16:47:49.356,115876,14540,18138,93921,121158
2025-04-16 16:47:49.369,115866,14538,18123,93914,121156
2025-04-16 16:47:49.386,115861,14526,18113,93924,121168
2025-04-16 16:47:49.388,115849,14517,18107,93933,121172
2025-04-16 16:47:49.397,115863,14510,18094,93950,121194
2025-04-16 16:47:49.408,115874,14511,18088,93964,121188
2025-04-16 16:47:49.417,115890,14504,18081,93967,121229
2025-04-16 16:47:49.428,115893,14504,18070,93972,121247
2025-04-16 16:47:49.450,115917,14495,18065,93992,121246
2025-04-16 16:47:49.451,115935,14494,18063,93998,121236
2025-04-16 16:47:49.457,115947,14496,18057,94003,121271
2025-04-16 16:47:49.468,115955,14495,18055,94016,121293
2025-04-16 16:47:49.477,115970,14495,18053,94024,121294
2025-04-16 16:47:49.489,115977,14495,18050,94026,121306
2025-04-16 16:47:49.496,115985,14493,18047,94015,121301
2025-04-16 16:47:49.513,115982,14489,18047,94028,121313
2025-04-16 16:47:49.517,115983,14493,18049,94008,121307
2025-04-16 16:47:49.529,115986,14500,18047,94006,121299
2025-04-16 16:47:49.537,115984,14506,18054,94006,121284
2025-04-16 16:47:49.549,115992,14509,18057,94013,121301
2025-04-16 16:47:49.561,116010,14513,18068,94013,121333
2025-04-16 16:47:49.562,116010,14513,18068,94013,121333
2025-04-16 16:47:49.579,116015,14529,18073,94015,121318
2025-04-16 16:47:49.580,116011,14537,18076,94029,121329
2025-04-16 16:47:49.590,116011,14542,18084,94038,121318
2025-04-16 16:47:49.601,116034,14544,18092,94038,121324
2025-04-16 16:47:49.608,116031,14553,18097,94038,121335
2025-04-16 16:47:49.620,116033,14559,18106,94046,121325
2025-04-16 16:47:49.644,116038,14566,18108,94057,121327
2025-04-16 16:47:49.645,116044,14573,18117,94056,121346
2025-04-16 16:47:49.649,116053,14579,18120,94078,121343
2025-04-16 16:47:49.661,116056,14579,18128,94086,121359
2025-04-16 16:47:49.668,116063,14588,18137,94099,121361
2025-04-16 16:47:49.680,116065,14590,18137,94101,121367
2025-04-16 16:47:49.688,116069,14599,18141,94120,121373
2025-04-16 16:47:49.707,116071,14599,18149,94121,121379
2025-04-16 16:47:49.709,116090,14606,18153,94140,121388
2025-04-16 16:47:49.721,116087,14611,18159,94131,121371
2025-04-16 16:47:49.728,116097,14613,18158,94151,121386
2025-04-16 16:47:49.740,116103,14620,18168,94158,121403
2025-04-16 16:47:49.748,116117,14625,18167,94173,121427
2025-04-16 16:47:49.771,116130,14625,18175,94191,121447
2025-04-16 16:47:49.773,116143,14628,18177,94202,121439
2025-04-16 16:47:49.780,116139,14634,18176,94221,121450
2025-04-16 16:47:49.789,116139,14636,18178,94219,121451
2025-04-16 16:47:49.801,116137,14637,18179,94222,121455
2025-04-16 16:47:49.808,116149,14645,18183,94247,121461
2025-04-16 16:47:49.834,116153,14645,18185,94249,121482
2025-04-16 16:47:49.835,116147,14644,18187,94263,121485
2025-04-16 16:47:49.841,116135,14645,18189,94253,121489
2025-04-16 16:47:49.852,116132,14645,18188,94261,121490
2025-04-16 16:47:49.860,116138,14653,18194,94260,121473
2025-04-16 16:47:49.872,116133,14652,18203,94270,121482
2025-04-16 16:47:49.881,116152,14651,18198,94273,121498
2025-04-16 16:47:49.896,116143,14658,18201,94302,121497
2025-04-16 16:47:49.900,116146,14661,18200,94290,121489
2025-04-16 16:47:49.913,116139,14661,18204,94302,121514
2025-04-16 16:47:49.920,116119,14661,18205,94282,121483
2025-04-16 16:47:49.933,116114,14659,18207,94275,121499
2025-04-16 16:47:49.940,116120,14668,18211,94300,121501
2025-04-16 16:47:49.960,116123,14666,18212,94289,121487
2025-04-16 16:47:49.961,116121,14671,18214,94296,121501
2025-04-16 16:47:49.972,116115,14672,18216,94296,121491
2025-04-16 16:47:49.980,116119,14667,18217,94295,121517
2025-04-16 16:47:49.993,116097,14673,18218,94306,121509
2025-04-16 16:47:50.000,116091,14673,18223,94295,121493
2025-04-16 16:47:50.023,116086,14669,18222,94298,121504
2025-04-16 16:47:50.024,116098,14681,18226,94300,121499
2025-04-16 16:47:50.033,116089,14683,18228,94299,121487
2025-04-16 16:47:50.040,116095,14686,18229,94323,121524
2025-04-16 16:47:50.053,116099,14682,18227,94317,121535
2025-04-16 16:47:50.060,116066,14681,18225,94303,121516
2025-04-16 16:47:50.072,116057,14685,18225,94294,121492
2025-04-16 16:47:50.086,116038,14678,18219,94291,121500
2025-04-16 16:47:50.092,116020,14667,18210,94264,121462
2025-04-16 16:47:50.100,115995,14658,18205,94261,121449
2025-04-16 16:47:50.113,115967,14658,18196,94241,121437
2025-04-16 16:47:50.120,115955,14643,18177,94236,121424
2025-04-16 16:47:50.132,115935,14637,18167,94215,121400
2025-04-16 16:47:50.150,115910,14626,18152,94209,121371
2025-04-16 16:47:50.152,115899,14620,18143,94205,121363
2025-04-16 16:47:50.164,115877,14610,18133,94196,121349
2025-04-16 16:47:50.172,115887,14600,18119,94200,121373
2025-04-16 16:47:50.184,115862,14597,18109,94213,121371
2025-04-16 16:47:50.191,115867,14586,18099,94200,121375
2025-04-16 16:47:50.214,115864,14579,18081,94209,121394
2025-04-16 16:47:50.216,115849,14575,18072,94200,121391
2025-04-16 16:47:50.225,115858,14566,18063,94195,121383
2025-04-16 16:47:50.232,115848,14560,18056,94200,121388
2025-04-16 16:47:50.244,115879,14556,18053,94215,121407
2025-04-16 16:47:50.252,115891,14555,18046,94229,121435
2025-04-16 16:47:50.277,115896,14554,18045,94253,121458
2025-04-16 16:47:50.278,115904,14550,18038,94268,121475
2025-04-16 16:47:50.284,115919,14548,18036,94275,121482
2025-04-16 16:47:50.293,115921,14548,18037,94273,121490
2025-04-16 16:47:50.304,115930,14550,18033,94281,121494
2025-04-16 16:47:50.312,115932,14546,18030,94287,121496
2025-04-16 16:47:50.324,115939,14551,18032,94302,121531
2025-04-16 16:47:50.339,115942,14553,18031,94311,121539
2025-04-16 16:47:50.344,115946,14548,18024,94317,121532
2025-04-16 16:47:50.352,115938,14549,18025,94317,121546
2025-04-16 16:47:50.364,115937,14550,18027,94313,121542
2025-04-16 16:47:50.372,115953,14550,18024,94317,121554
2025-04-16 16:47:50.383,115945,14549,18022,94321,121538
2025-04-16 16:47:50.403,115946,14555,18028,94319,121548
2025-04-16 16:47:50.405,115942,14551,18022,94323,121544
2025-04-16 16:47:50.413,115931,14554,18027,94331,121556
2025-04-16 16:47:50.424,115918,14550,18025,94323,121527
2025-04-16 16:47:50.436,115912,14552,18024,94317,121535
2025-04-16 16:47:50.444,115910,14553,18023,94330,121524
2025-04-16 16:47:50.467,115918,14560,18029,94316,121532
2025-04-16 16:47:50.468,115914,14554,18026,94332,121543
2025-04-16 16:47:50.476,115915,14556,18026,94328,121547
2025-04-16 16:47:50.484,115916,14558,18029,94338,121548
2025-04-16 16:47:50.496,115912,14557,18029,94334,121552
2025-04-16 16:47:50.505,115898,14559,18030,94329,121535
2025-04-16 16:47:50.529,115894,14561,18027,94321,121543
2025-04-16 16:47:50.530,115899,14562,18036,94328,121524
2025-04-16 16:47:50.535,115895,14565,18031,94335,121533
2025-04-16 16:47:50.544,115902,14569,18039,94340,121534
2025-04-16 16:47:50.556,115889,14572,18045,94345,121547
2025-04-16 16:47:50.568,115878,14578,18047,94351,121546
2025-04-16 16:47:50.569,115878,14578,18047,94351,121546
2025-04-16 16:47:50.576,115877,14579,18043,94353,121531
2025-04-16 16:47:50.592,115871,14578,18046,94331,121541
2025-04-16 16:47:50.596,115859,14583,18052,94342,121528
2025-04-16 16:47:50.604,115873,14587,18057,94337,121543
2025-04-16 16:47:50.615,115868,14595,18059,94349,121539
2025-04-16 16:47:50.624,115869,14594,18060,94351,121549
2025-04-16 16:47:50.636,115869,14597,18064,94363,121535
2025-04-16 16:47:50.655,115870,14596,18065,94353,121544
2025-04-16 16:47:50.657,115838,14597,18064,94369,121550
2025-04-16 16:47:50.664,115849,14603,18068,94362,121536
2025-04-16 16:47:50.676,115841,14604,18074,94353,121527
2025-04-16 16:47:50.684,115856,14604,18072,94347,121537
2025-04-16 16:47:50.695,115851,14610,18077,94358,121542
2025-04-16 16:47:50.705,115858,14615,18083,94369,121554
2025-04-16 16:47:50.720,115850,14620,18084,94386,121555
2025-04-16 16:47:50.728,115848,14617,18084,94366,121558
2025-04-16 16:47:50.736,115844,14622,18088,94360,121549
2025-04-16 16:47:50.748,115851,14627,18095,94377,121551
2025-04-16 16:47:50.755,115859,14633,18099,94383,121570
2025-04-16 16:47:50.768,115879,14637,18103,94403,121576
2025-04-16 16:47:50.783,115874,14639,18105,94411,121597
2025-04-16 16:47:50.787,115878,14642,18113,94408,121586
2025-04-16 16:47:50.796,115869,14645,18114,94408,121597
2025-04-16 16:47:50.808,115851,14644,18110,94403,121561
2025-04-16 16:47:50.816,115846,14648,18118,94404,121577
2025-04-16 16:47:50.828,115856,14649,18119,94405,121581
2025-04-16 16:47:50.846,115867,14656,18124,94416,121581
2025-04-16 16:47:50.848,115860,14656,18128,94411,121594
2025-04-16 16:47:50.856,115864,14667,18129,94426,121602
2025-04-16 16:47:50.868,115854,14660,18133,94430,121600
2025-04-16 16:47:50.876,115841,14666,18131,94415,121586
2025-04-16 16:47:50.887,115829,14656,18127,94395,121576
2025-04-16 16:47:50.909,115790,14654,18121,94383,121532
2025-04-16 16:47:50.910,115792,14648,18113,94380,121528
2025-04-16 16:47:50.916,115769,14645,18103,94365,121503
2025-04-16 16:47:50.928,115749,14637,18095,94354,121499
2025-04-16 16:47:50.936,115728,14633,18084,94332,121470
2025-04-16 16:47:50.948,115709,14622,18076,94331,121468
2025-04-16 16:47:50.955,115697,14620,18066,94323,121437
2025-04-16 16:47:50.971,115698,14611,18056,94320,121441
2025-04-16 16:47:50.976,115691,14604,18048,94328,121446
2025-04-16 16:47:50.988,115697,14600,18037,94330,121460
2025-04-16 16:47:51.000,115710,14593,18028,94339,121461
2025-04-16 16:47:51.008,115701,14587,18023,94344,121483
2025-04-16 16:47:51.019,115707,14577,18011,94350,121475
2025-04-16 16:47:51.035,115714,14572,18006,94337,121479
2025-04-16 16:47:51.039,115714,14574,18001,94350,121474
2025-04-16 16:47:51.048,115736,14573,17998,94356,121504
2025-04-16 16:47:51.059,115758,14575,17997,94378,121519
2025-04-16 16:47:51.068,115789,14580,18000,94402,121540
2025-04-16 16:47:51.080,115803,14579,18002,94411,121579
2025-04-16 16:47:51.097,115814,14586,18002,94431,121599
2025-04-16 16:47:51.099,115817,14584,18006,94455,121610
2025-04-16 16:47:51.108,115828,14578,17997,94452,121616
2025-04-16 16:47:51.119,115817,14585,18004,94441,121600
2025-04-16 16:47:51.128,115816,14579,18000,94438,121583
2025-04-16 16:47:51.140,115839,14588,18003,94434,121591
2025-04-16 16:47:51.160,115840,14594,18007,94438,121608
2025-04-16 16:47:51.162,115855,14603,18019,94464,121617
2025-04-16 16:47:51.168,115881,14614,18024,94462,121623
2025-04-16 16:47:51.180,115864,14611,18028,94480,121635
2025-04-16 16:47:51.187,115853,14614,18031,94485,121651
2025-04-16 16:47:51.200,115853,14615,18032,94462,121635
2025-04-16 16:47:51.208,115839,14623,18031,94464,121608
2025-04-16 16:47:51.224,115850,14625,18043,94463,121617
2025-04-16 16:47:51.233,115858,14629,18044,94464,121596
2025-04-16 16:47:51.240,115855,14636,18047,94467,121611
2025-04-16 16:47:51.251,115860,14636,18056,94476,121624
2025-04-16 16:47:51.260,115845,14645,18058,94482,121617
2025-04-16 16:47:51.272,115852,14647,18058,94475,121590
2025-04-16 16:47:51.287,115832,14647,18067,94447,121597
2025-04-16 16:47:51.292,115822,14648,18068,94443,121585
2025-04-16 16:47:51.299,115828,14657,18071,94441,121580
2025-04-16 16:47:51.312,115836,14665,18076,94441,121587
2025-04-16 16:47:51.319,115859,14675,18085,94468,121594
2025-04-16 16:47:51.332,115869,14682,18094,94473,121623
2025-04-16 16:47:51.348,115847,14687,18101,94497,121636
2025-04-16 16:47:51.351,115856,14690,18110,94510,121622
2025-04-16 16:47:51.360,115840,14690,18113,94515,121637
2025-04-16 16:47:51.371,115849,14694,18112,94504,121622
2025-04-16 16:47:51.375,115849,14694,18112,94504,121622
2025-04-16 16:47:51.380,115850,14705,18127,94481,121638
2025-04-16 16:47:51.392,115851,14708,18129,94504,121635
2025-04-16 16:47:51.412,115860,14716,18140,94512,121636
2025-04-16 16:47:51.413,115863,14724,18141,94522,121648
2025-04-16 16:47:51.420,115854,14728,18150,94528,121662
2025-04-16 16:47:51.431,115854,14727,18151,94527,121670
2025-04-16 16:47:51.440,115837,14731,18152,94533,121662
2025-04-16 16:47:51.451,115836,14726,18155,94514,121639
2025-04-16 16:47:51.460,115823,14731,18158,94513,121645
2025-04-16 16:47:51.474,115819,14733,18158,94518,121652
2025-04-16 16:47:51.483,115838,14741,18165,94520,121638
2025-04-16 16:47:51.491,115826,14745,18169,94512,121647
2025-04-16 16:47:51.504,115828,14743,18171,94520,121648
2025-04-16 16:47:51.511,115836,14747,18173,94528,121642
2025-04-16 16:47:51.537,115829,14748,18174,94529,121671
2025-04-16 16:47:51.538,115830,14753,18178,94519,121659
2025-04-16 16:47:51.544,115810,14755,18180,94530,121649
2025-04-16 16:47:51.551,115816,14752,18179,94537,121651
2025-04-16 16:47:51.564,115807,14758,18183,94518,121663
2025-04-16 16:47:51.572,115812,14757,18184,94526,121676
2025-04-16 16:47:51.583,115820,14763,18184,94532,121658
2025-04-16 16:47:51.600,115817,14765,18190,94530,121657
2025-04-16 16:47:51.603,115813,14767,18191,94536,121680
2025-04-16 16:47:51.612,115813,14773,18191,94550,121665
2025-04-16 16:47:51.623,115817,14771,18196,94541,121678
2025-04-16 16:47:51.632,115821,14768,18196,94550,121668
2025-04-16 16:47:51.643,115804,14769,18200,94540,121659
2025-04-16 16:47:51.662,115823,14772,18199,94532,121654
2025-04-16 16:47:51.664,115825,14780,18203,94551,121665
2025-04-16 16:47:51.672,115835,14783,18207,94553,121673
2025-04-16 16:47:51.684,115821,14783,18207,94554,121682
2025-04-16 16:47:51.696,115798,14779,18199,94558,121671
2025-04-16 16:47:51.703,115779,14773,18191,94527,121644
2025-04-16 16:47:51.725,115766,14760,18186,94513,121618
2025-04-16 16:47:51.726,115753,14757,18178,94502,121573
2025-04-16 16:47:51.736,115738,14753,18173,94489,121566
2025-04-16 16:47:51.743,115725,14753,18167,94486,121574
2025-04-16 16:47:51.755,115714,14746,18158,94502,121557
2025-04-16 16:47:51.763,115700,14738,18146,94492,121566
2025-04-16 16:47:51.791,115698,14733,18137,94492,121553
2025-04-16 16:47:51.792,115690,14722,18127,94497,121558
2025-04-16 16:47:51.796,115684,14718,18119,94479,121537
2025-04-16 16:47:51.803,115686,14712,18107,94487,121539
2025-04-16 16:47:51.815,115692,14705,18100,94499,121572
2025-04-16 16:47:51.823,115710,14705,18095,94523,121571
2025-04-16 16:47:51.835,115737,14700,18091,94520,121595
2025-04-16 16:47:51.854,115752,14700,18085,94566,121613
2025-04-16 16:47:51.856,115761,14698,18081,94572,121640
2025-04-16 16:47:51.863,115779,14696,18078,94575,121645
2025-04-16 16:47:51.875,115790,14696,18084,94587,121659
2025-04-16 16:47:51.883,115800,14697,18076,94611,121677
2025-04-16 16:47:51.896,115828,14696,18079,94618,121692
2025-04-16 16:47:51.903,115832,14703,18078,94632,121699
2025-04-16 16:47:51.918,115839,14703,18088,94651,121712
2025-04-16 16:47:51.924,115855,14708,18092,94659,121727
2025-04-16 16:47:51.935,115858,14714,18090,94668,121733
2025-04-16 16:47:51.944,115854,14716,18093,94676,121727
2025-04-16 16:47:51.954,115875,14719,18099,94670,121736
2025-04-16 16:47:51.967,115875,14724,18096,94673,121726
2025-04-16 16:47:51.983,115866,14727,18099,94673,121720
2025-04-16 16:47:51.987,115876,14733,18102,94658,121725
2025-04-16 16:47:51.996,115871,14740,18113,94680,121718
2025-04-16 16:47:52.007,115879,14747,18118,94686,121734
2025-04-16 16:47:52.015,115880,14753,18125,94695,121725
2025-04-16 16:47:52.027,115895,14756,18130,94692,121735
2025-04-16 16:47:52.046,115884,14760,18132,94698,121718
2025-04-16 16:47:52.048,115879,14763,18138,94671,121718
2025-04-16 16:47:52.055,115877,14767,18138,94680,121709
2025-04-16 16:47:52.067,115887,14771,18148,94683,121713
2025-04-16 16:47:52.075,115879,14779,18155,94698,121723
2025-04-16 16:47:52.087,115882,14782,18155,94682,121722
2025-04-16 16:47:52.109,115883,14789,18165,94684,121705
2025-04-16 16:47:52.111,115876,14794,18166,94692,121727
2025-04-16 16:47:52.115,115883,14797,18172,94695,121710
2025-04-16 16:47:52.127,115886,14800,18176,94696,121732
2025-04-16 16:47:52.136,115892,14810,18183,94698,121708
2025-04-16 16:47:52.147,115887,14811,18184,94685,121721
2025-04-16 16:47:52.155,115888,14815,18193,94688,121722
2025-04-16 16:47:52.173,115883,14821,18198,94683,121709
2025-04-16 16:47:52.180,115875,14822,18207,94697,121704
2025-04-16 16:47:52.183,115875,14822,18207,94697,121704
2025-04-16 16:47:52.187,115891,14838,18214,94687,121688
2025-04-16 16:47:52.200,115878,14842,18219,94693,121708
2025-04-16 16:47:52.207,115887,14849,18230,94697,121706
2025-04-16 16:47:52.220,115886,14853,18235,94721,121699
2025-04-16 16:47:52.235,115887,14860,18239,94721,121719
2025-04-16 16:47:52.239,115893,14861,18244,94712,121725
2025-04-16 16:47:52.248,115893,14864,18251,94711,121710
2025-04-16 16:47:52.260,115894,14871,18252,94710,121709
2025-04-16 16:47:52.267,115899,14880,18263,94731,121718
2025-04-16 16:47:52.279,115905,14880,18265,94740,121733
2025-04-16 16:47:52.299,115902,14880,18272,94733,121727
2025-04-16 16:47:52.301,115888,14890,18276,94746,121736
2025-04-16 16:47:52.308,115891,14890,18277,94743,121725
2025-04-16 16:47:52.319,115889,14888,18282,94734,121732
2025-04-16 16:47:52.328,115884,14898,18284,94733,121727
2025-04-16 16:47:52.339,115888,14901,18289,94736,121726
2025-04-16 16:47:52.347,115886,14909,18294,94737,121730
2025-04-16 16:47:52.362,115896,14908,18298,94738,121730
2025-04-16 16:47:52.367,115890,14913,18304,94747,121730
2025-04-16 16:47:52.379,115874,14915,18308,94742,121740
2025-04-16 16:47:52.388,115860,14916,18308,94733,121720
2025-04-16 16:47:52.399,115868,14917,18311,94737,121710
2025-04-16 16:47:52.410,115868,14919,18312,94730,121696
2025-04-16 16:47:52.426,115874,14926,18318,94722,121711
2025-04-16 16:47:52.431,115862,14929,18321,94742,121707
2025-04-16 16:47:52.440,115876,14932,18325,94740,121725
2025-04-16 16:47:52.452,115864,14936,18335,94749,121724
2025-04-16 16:47:52.459,115858,14940,18338,94737,121729
2025-04-16 16:47:52.471,115854,14939,18332,94735,121723
2025-04-16 16:47:52.488,115834,14938,18341,94733,121715
2025-04-16 16:47:52.492,115835,14947,18343,94749,121714
2025-04-16 16:47:52.499,115840,14945,18348,94745,121729
2025-04-16 16:47:52.511,115844,14957,18354,94748,121738
2025-04-16 16:47:52.520,115840,14956,18358,94766,121750
2025-04-16 16:47:52.531,115830,14957,18358,94782,121742
2025-04-16 16:47:52.551,115804,14945,18349,94760,121735
2025-04-16 16:47:52.552,115764,14943,18342,94730,121691
2025-04-16 16:47:52.559,115729,14936,18335,94674,121649
2025-04-16 16:47:52.570,115692,14929,18326,94655,121614
2025-04-16 16:47:52.579,115680,14925,18317,94639,121575
2025-04-16 16:47:52.591,115659,14914,18310,94607,121563
2025-04-16 16:47:52.599,115647,14920,18310,94613,121559
2025-04-16 16:47:52.614,115647,14920,18310,94613,121559
2025-04-16 16:47:52.618,115626,14915,18307,94621,121555
2025-04-16 16:47:52.630,115612,14910,18295,94622,121554
2025-04-16 16:47:52.639,115582,14906,18282,94604,121544
2025-04-16 16:47:52.651,115558,14894,18273,94570,121503
2025-04-16 16:47:52.663,115528,14889,18265,94568,121494
2025-04-16 16:47:52.679,115516,14883,18257,94560,121468
2025-04-16 16:47:52.683,115538,14879,18254,94548,121486
2025-04-16 16:47:52.691,115554,14879,18244,94582,121502
2025-04-16 16:47:52.703,115577,14877,18243,94609,121553
2025-04-16 16:47:52.711,115577,14876,18239,94624,121569
2025-04-16 16:47:52.723,115594,14872,18233,94643,121579
2025-04-16 16:47:52.742,115602,14873,18230,94666,121616
2025-04-16 16:47:52.743,115617,14867,18221,94662,121631
2025-04-16 16:47:52.751,115625,14860,18214,94678,121624
2025-04-16 16:47:52.763,115627,14855,18210,94657,121612
2025-04-16 16:47:52.771,115620,14849,18206,94652,121604
2025-04-16 16:47:52.783,115642,14855,18208,94649,121580
2025-04-16 16:47:52.787,115642,14855,18208,94649,121580
2025-04-16 16:47:52.790,115656,14852,18205,94665,121632
2025-04-16 16:47:52.805,115671,14852,18201,94674,121631
2025-04-16 16:47:52.811,115657,14852,18202,94676,121626
2025-04-16 16:47:52.823,115656,14852,18197,94679,121627
2025-04-16 16:47:52.831,115651,14851,18199,94670,121613
2025-04-16 16:47:52.843,115645,14850,18196,94651,121586
2025-04-16 16:47:52.851,115658,14854,18202,94659,121598
2025-04-16 16:47:52.878,115649,14855,18202,94660,121599
2025-04-16 16:47:52.879,115660,14855,18203,94655,121604
2025-04-16 16:47:52.883,115659,14851,18206,94648,121578
2025-04-16 16:47:52.891,115647,14855,18202,94631,121573
2025-04-16 16:47:52.903,115630,14854,18202,94636,121575
2025-04-16 16:47:52.915,115638,14858,18201,94628,121563
2025-04-16 16:47:52.923,115634,14853,18205,94612,121550
2025-04-16 16:47:52.942,115639,14857,18201,94607,121544
2025-04-16 16:47:52.943,115627,14856,18201,94608,121538
2025-04-16 16:47:52.955,115630,14857,18202,94594,121541
2025-04-16 16:47:52.963,115634,14855,18201,94610,121534
2025-04-16 16:47:52.974,115613,14849,18197,94601,121520
2025-04-16 16:47:52.983,115606,14852,18196,94573,121491
2025-04-16 16:47:53.005,115597,14851,18198,94572,121475
2025-04-16 16:47:53.006,115611,14859,18203,94559,121484
2025-04-16 16:47:53.015,115636,14861,18202,94578,121500
2025-04-16 16:47:53.023,115646,14871,18214,94596,121512
2025-04-16 16:47:53.035,115669,14877,18217,94610,121523
2025-04-16 16:47:53.043,115667,14878,18220,94628,121537
2025-04-16 16:47:53.068,115672,14883,18224,94631,121552
2025-04-16 16:47:53.070,115671,14887,18226,94635,121551
2025-04-16 16:47:53.074,115663,14890,18230,94638,121555
2025-04-16 16:47:53.083,115662,14893,18236,94645,121547
2025-04-16 16:47:53.095,115658,14899,18238,94651,121527
2025-04-16 16:47:53.102,115660,14898,18243,94635,121513
2025-04-16 16:47:53.115,115656,14911,18249,94631,121500
2025-04-16 16:47:53.131,115654,14919,18262,94642,121510
2025-04-16 16:47:53.134,115658,14925,18263,94646,121507
2025-04-16 16:47:53.143,115640,14929,18274,94648,121509
2025-04-16 16:47:53.154,115651,14937,18279,94648,121492
2025-04-16 16:47:53.163,115659,14946,18289,94624,121482
2025-04-16 16:47:53.175,115654,14956,18300,94639,121476
2025-04-16 16:47:53.195,115662,14968,18308,94656,121479
2025-04-16 16:47:53.196,115662,14968,18308,94656,121479
2025-04-16 16:47:53.197,115682,14980,18334,94667,121496
2025-04-16 16:47:53.204,115686,14996,18341,94688,121502
2025-04-16 16:47:53.214,115676,15005,18353,94698,121528
2025-04-16 16:47:53.227,115678,15011,18358,94723,121549
2025-04-16 16:47:53.235,115677,15016,18363,94729,121543
2025-04-16 16:47:53.259,115673,15022,18369,94723,121553
2025-04-16 16:47:53.260,115676,15029,18379,94723,121557
2025-04-16 16:47:53.267,115681,15035,18383,94733,121542
2025-04-16 16:47:53.275,115673,15040,18383,94749,121542
2025-04-16 16:47:53.287,115676,15047,18393,94743,121556
2025-04-16 16:47:53.294,115689,15052,18405,94765,121581
2025-04-16 16:47:53.307,115700,15060,18406,94782,121586
2025-04-16 16:47:53.325,115692,15063,18412,94796,121597
2025-04-16 16:47:53.326,115679,15064,18416,94793,121606
2025-04-16 16:47:53.335,115677,15065,18414,94772,121611
2025-04-16 16:47:53.347,115671,15065,18420,94782,121583
2025-04-16 16:47:53.355,115674,15067,18421,94780,121579
2025-04-16 16:47:53.367,115676,15072,18424,94785,121585
2025-04-16 16:47:53.388,115644,15069,18421,94781,121566
2025-04-16 16:47:53.389,115627,15067,18416,94750,121552
2025-04-16 16:47:53.395,115603,15063,18411,94754,121532
2025-04-16 16:47:53.406,115589,15060,18409,94750,121513
2025-04-16 16:47:53.415,115545,15057,18401,94739,121515
2025-04-16 16:47:53.427,115538,15057,18398,94744,121512
2025-04-16 16:47:53.434,115516,15050,18387,94748,121516
2025-04-16 16:47:53.452,115503,15045,18381,94747,121528
2025-04-16 16:47:53.455,115466,15037,18368,94769,121530
2025-04-16 16:47:53.467,115413,15019,18345,94749,121518
2025-04-16 16:47:53.474,115362,15000,18320,94737,121478
2025-04-16 16:47:53.487,115277,14975,18295,94707,121446
2025-04-16 16:47:53.494,115186,14949,18266,94673,121400
2025-04-16 16:47:53.515,115096,14930,18239,94661,121365
2025-04-16 16:47:53.516,114999,14908,18213,94614,121312
2025-04-16 16:47:53.526,114925,14890,18191,94571,121251
2025-04-16 16:47:53.539,114882,14884,18182,94546,121222
2025-04-16 16:47:53.546,114831,14872,18173,94543,121239
2025-04-16 16:47:53.558,114796,14861,18163,94546,121224
2025-04-16 16:47:53.579,114760,14859,18151,94552,121211
2025-04-16 16:47:53.580,114725,14854,18145,94543,121222
2025-04-16 16:47:53.587,114684,14847,18139,94545,121221
2025-04-16 16:47:53.599,114660,14843,18133,94538,121190
2025-04-16 16:47:53.607,114625,14840,18129,94543,121189
2025-04-16 16:47:53.618,114607,14835,18124,94551,121167
2025-04-16 16:47:53.627,114593,14832,18127,94537,121169
2025-04-16 16:47:53.641,114607,14838,18126,94553,121168
2025-04-16 16:47:53.647,114603,14838,18128,94574,121191
2025-04-16 16:47:53.658,114602,14839,18136,94584,121184
2025-04-16 16:47:53.666,114610,14847,18143,94600,121211
2025-04-16 16:47:53.678,114617,14858,18147,94603,121188
2025-04-16 16:47:53.686,114614,14856,18155,94604,121183
2025-04-16 16:47:53.704,114620,14866,18157,94606,121194
2025-04-16 16:47:53.707,114629,14875,18168,94598,121178
2025-04-16 16:47:53.718,114637,14875,18175,94590,121146
2025-04-16 16:47:53.726,114628,14883,18176,94582,121134
2025-04-16 16:47:53.739,114618,14887,18187,94571,121111
2025-04-16 16:47:53.746,114602,14893,18189,94569,121085
2025-04-16 16:47:53.768,114547,14897,18198,94572,121060
2025-04-16 16:47:53.770,114524,14905,18201,94535,121004
2025-04-16 16:47:53.778,114515,14911,18213,94524,120990
2025-04-16 16:47:53.791,114506,14923,18225,94517,120994
2025-04-16 16:47:53.799,114482,14928,18226,94524,120993
2025-04-16 16:47:53.811,114412,14915,18220,94521,120975
2025-04-16 16:47:53.831,114352,14895,18202,94389,120821
2025-04-16 16:47:53.832,114279,14883,18190,94230,120613
2025-04-16 16:47:53.838,114248,14881,18194,94110,120503
2025-04-16 16:47:53.851,114249,14893,18205,94084,120482
2025-04-16 16:47:53.858,114242,14903,18210,94078,120468
2025-04-16 16:47:53.870,114228,14913,18221,94030,120392
2025-04-16 16:47:53.879,114203,14920,18228,94002,120362
2025-04-16 16:47:53.894,114165,14926,18236,93985,120356
2025-04-16 16:47:53.898,114119,14924,18237,93991,120353
2025-04-16 16:47:53.910,114096,14928,18240,93996,120345
2025-04-16 16:47:53.919,114081,14932,18247,94004,120349
2025-04-16 16:47:53.931,114072,14936,18250,94003,120369
2025-04-16 16:47:53.938,114074,14941,18251,94019,120368
2025-04-16 16:47:53.959,114035,14940,18251,94035,120388
2025-04-16 16:47:53.961,114016,14933,18250,94016,120360
2025-04-16 16:47:53.971,114023,14928,18248,93989,120315
2025-04-16 16:47:53.979,114024,14928,18245,93947,120286
2025-04-16 16:47:53.990,114039,14929,18249,93924,120275
2025-04-16 16:47:53.999,114038,14928,18245,93912,120247
2025-04-16 16:47:54.022,114046,14927,18249,93891,120237
2025-04-16 16:47:54.023,114019,14928,18249,93870,120222
2025-04-16 16:47:54.030,113976,14929,18249,93864,120194
2025-04-16 16:47:54.042,113947,14925,18245,93864,120182
2025-04-16 16:47:54.050,113927,14928,18248,93846,120186
2025-04-16 16:47:54.062,113902,14929,18248,93855,120184
2025-04-16 16:47:54.070,113903,14934,18254,93869,120209
2025-04-16 16:47:54.085,113903,14939,18263,93907,120240
2025-04-16 16:47:54.091,113914,14952,18267,93941,120283
2025-04-16 16:47:54.102,113929,14961,18276,93996,120317
2025-04-16 16:47:54.111,113952,14968,18291,94033,120362
2025-04-16 16:47:54.122,113985,14980,18299,94098,120422
2025-04-16 16:47:54.130,114012,14997,18309,94152,120485
2025-04-16 16:47:54.148,114042,15002,18317,94237,120554
2025-04-16 16:47:54.150,114066,15013,18325,94306,120629
2025-04-16 16:47:54.162,114078,15013,18332,94372,120691
2025-04-16 16:47:54.170,114065,15009,18324,94395,120698
2025-04-16 16:47:54.182,114042,15007,18327,94424,120709
2025-04-16 16:47:54.194,114010,15008,18323,94402,120697
2025-04-16 16:47:54.195,114010,15008,18323,94402,120697
2025-04-16 16:47:54.211,113976,14995,18312,94385,120670
2025-04-16 16:47:54.212,113971,14991,18298,94395,120662
2025-04-16 16:47:54.222,113974,14986,18288,94380,120656
2025-04-16 16:47:54.230,113983,14983,18283,94366,120622
2025-04-16 16:47:54.242,113990,14987,18285,94382,120641
2025-04-16 16:47:54.251,114012,14991,18282,94423,120685
2025-04-16 16:47:54.275,114047,14996,18286,94462,120740
2025-04-16 16:47:54.276,114075,14999,18286,94503,120783
2025-04-16 16:47:54.282,114095,15003,18287,94566,120846
2025-04-16 16:47:54.293,114104,15009,18287,94636,120922
2025-04-16 16:47:54.302,114121,15014,18284,94699,120975
2025-04-16 16:47:54.314,114117,15014,18284,94709,120995
2025-04-16 16:47:54.322,114119,15018,18287,94712,120991
2025-04-16 16:47:54.339,114136,15020,18287,94712,121013
2025-04-16 16:47:54.342,114201,15031,18304,94767,121074
2025-04-16 16:47:54.354,114255,15042,18301,94806,121139
2025-04-16 16:47:54.362,114325,15053,18313,94840,121190
2025-04-16 16:47:54.375,114371,15066,18321,94906,121253
2025-04-16 16:47:54.382,114417,15070,18329,94975,121314
2025-04-16 16:47:54.403,114466,15079,18333,95023,121372
2025-04-16 16:47:54.404,114513,15086,18341,95057,121426
2025-04-16 16:47:54.414,114551,15094,18344,95120,121485
2025-04-16 16:47:54.423,114610,15101,18347,95166,121528
2025-04-16 16:47:54.434,114653,15106,18351,95224,121601
2025-04-16 16:47:54.442,114724,15107,18350,95290,121663
2025-04-16 16:47:54.466,114744,15113,18356,95341,121699
2025-04-16 16:47:54.467,114763,15105,18349,95379,121752
2025-04-16 16:47:54.474,114764,15102,18338,95431,121784
2025-04-16 16:47:54.482,114749,15090,18329,95437,121783
2025-04-16 16:47:54.494,114732,15076,18316,95415,121758
2025-04-16 16:47:54.502,114702,15064,18307,95388,121719
2025-04-16 16:47:54.513,114707,15059,18297,95374,121705
2025-04-16 16:47:54.530,114718,15058,18295,95379,121708
2025-04-16 16:47:54.534,114743,15057,18287,95393,121702
2025-04-16 16:47:54.541,114736,15048,18284,95397,121724
2025-04-16 16:47:54.553,114729,15046,18274,95402,121731
2025-04-16 16:47:54.562,114699,15030,18255,95389,121715
2025-04-16 16:47:54.574,114657,15021,18252,95375,121664
2025-04-16 16:47:54.593,114618,15014,18242,95325,121612
2025-04-16 16:47:54.595,114603,15005,18231,95283,121556
2025-04-16 16:47:54.607,114585,15001,18227,95273,121525
2025-04-16 16:47:54.614,114563,14996,18215,95252,121489
2025-04-16 16:47:54.626,114548,14985,18216,95231,121492
2025-04-16 16:47:54.634,114509,14981,18204,95217,121464
2025-04-16 16:47:54.658,114475,14970,18199,95179,121413
2025-04-16 16:47:54.659,114429,14958,18184,95128,121348
2025-04-16 16:47:54.667,114392,14956,18179,95076,121279
2025-04-16 16:47:54.674,114367,14946,18178,95025,121236
2025-04-16 16:47:54.686,114353,14944,18171,94993,121223
2025-04-16 16:47:54.694,114328,14943,18168,94991,121186
2025-04-16 16:47:54.706,114304,14938,18163,94975,121169
2025-04-16 16:47:54.722,114296,14939,18164,94958,121151
2025-04-16 16:47:54.726,114262,14939,18162,94952,121138
2025-04-16 16:47:54.734,114247,14937,18161,94954,121142
2025-04-16 16:47:54.746,114223,14933,18161,94942,121139
2025-04-16 16:47:54.754,114218,14937,18160,94923,121100
2025-04-16 16:47:54.766,114196,14938,18157,94921,121111
2025-04-16 16:47:54.784,114174,14928,18150,94910,121088
2025-04-16 16:47:54.786,114150,14925,18149,94893,121057
2025-04-16 16:47:54.793,114125,14920,18142,94867,121038
2025-04-16 16:47:54.806,114108,14918,18142,94862,121027
2025-04-16 16:47:54.814,114110,14921,18136,94842,121009
2025-04-16 16:47:54.825,114094,14918,18138,94834,120995
2025-04-16 16:47:54.846,114086,14921,18140,94850,121011
2025-04-16 16:47:54.848,114072,14918,18135,94847,121016
2025-04-16 16:47:54.853,114051,14910,18127,94844,121011
2025-04-16 16:47:54.866,114031,14910,18125,94822,120966
2025-04-16 16:47:54.878,114026,14911,18132,94836,120968
2025-04-16 16:47:54.886,114033,14912,18129,94836,120981
2025-04-16 16:47:54.910,114038,14919,18132,94851,121009
2025-04-16 16:47:54.911,114048,14924,18132,94868,121014
2025-04-16 16:47:54.917,114034,14926,18135,94893,121037
2025-04-16 16:47:54.926,114042,14923,18135,94916,121058
2025-04-16 16:47:54.938,114050,14923,18134,94915,121049
2025-04-16 16:47:54.946,114027,14924,18140,94906,121057
2025-04-16 16:47:54.957,114014,14917,18133,94930,121058
2025-04-16 16:47:54.974,114004,14916,18128,94925,121063
2025-04-16 16:47:54.977,113995,14916,18126,94911,121044
2025-04-16 16:47:54.986,113999,14909,18119,94915,121034
2025-04-16 16:47:54.998,113980,14900,18110,94915,121020
2025-04-16 16:47:55.002,113980,14900,18110,94915,121020
2025-04-16 16:47:55.006,113966,14896,18096,94938,121042
2025-04-16 16:47:55.017,113948,14884,18085,94939,121027
2025-04-16 16:47:55.037,113939,14875,18076,94923,121015
2025-04-16 16:47:55.038,113952,14868,18066,94916,120999
2025-04-16 16:47:55.047,113965,14875,18068,94936,121017
2025-04-16 16:47:55.058,114001,14882,18073,94990,121095
2025-04-16 16:47:55.066,114061,14889,18073,95069,121191
2025-04-16 16:47:55.078,114107,14897,18073,95144,121267
2025-04-16 16:47:55.086,114122,14898,18073,95212,121333
2025-04-16 16:47:55.101,114118,14894,18067,95238,121359
2025-04-16 16:47:55.110,114095,14878,18048,95229,121355
2025-04-16 16:47:55.117,114063,14864,18038,95193,121316
2025-04-16 16:47:55.129,114023,14851,18021,95167,121260
2025-04-16 16:47:55.138,113984,14843,18012,95121,121222
2025-04-16 16:47:55.150,113940,14831,18000,95102,121216
2025-04-16 16:47:55.165,113919,14824,17991,95092,121179
2025-04-16 16:47:55.170,113887,14814,17978,95070,121154
2025-04-16 16:47:55.177,113867,14807,17970,95023,121112
2025-04-16 16:47:55.190,113835,14801,17968,94992,121084
2025-04-16 16:47:55.198,113841,14792,17959,94979,121059
2025-04-16 16:47:55.210,113840,14792,17955,94959,121039
2025-04-16 16:47:55.227,113843,14790,17955,94953,121033
2025-04-16 16:47:55.230,113829,14790,17955,94953,121026
2025-04-16 16:47:55.238,113824,14788,17945,94965,121048
2025-04-16 16:47:55.250,113829,14787,17950,94973,121062
2025-04-16 16:47:55.258,113804,14786,17944,94984,121071
2025-04-16 16:47:55.269,113819,14780,17939,94978,121066
2025-04-16 16:47:55.290,113803,14774,17931,94974,121047
2025-04-16 16:47:55.291,113805,14772,17933,94948,121029
2025-04-16 16:47:55.298,113804,14766,17930,94941,121007
2025-04-16 16:47:55.310,113813,14767,17925,94931,121008
2025-04-16 16:47:55.318,113823,14764,17917,94929,121001
2025-04-16 16:47:55.330,113810,14756,17912,94910,120992
2025-04-16 16:47:55.353,113790,14747,17903,94882,120958
2025-04-16 16:47:55.354,113773,14739,17897,94870,120943
2025-04-16 16:47:55.362,113767,14733,17891,94836,120915
2025-04-16 16:47:55.370,113745,14726,17882,94821,120892
2025-04-16 16:47:55.382,113755,14723,17883,94822,120893
2025-04-16 16:47:55.389,113739,14724,17878,94828,120902
2025-04-16 16:47:55.402,113738,14717,17875,94827,120895
2025-04-16 16:47:55.417,113735,14721,17868,94814,120900
2025-04-16 16:47:55.421,113730,14717,17867,94827,120874
2025-04-16 16:47:55.430,113706,14706,17860,94808,120857
2025-04-16 16:47:55.442,113704,14702,17861,94766,120827
2025-04-16 16:47:55.449,113700,14709,17863,94749,120822
2025-04-16 16:47:55.462,113710,14704,17863,94748,120819
2025-04-16 16:47:55.481,113727,14711,17866,94761,120830
2025-04-16 16:47:55.482,113739,14713,17871,94753,120830
2025-04-16 16:47:55.489,113727,14716,17872,94752,120837
2025-04-16 16:47:55.502,113729,14711,17874,94775,120851
2025-04-16 16:47:55.509,113737,14720,17877,94768,120860
2025-04-16 16:47:55.522,113734,14717,17875,94780,120852
2025-04-16 16:47:55.529,113737,14722,17882,94779,120839
2025-04-16 16:47:55.546,113739,14721,17878,94766,120829
2025-04-16 16:47:55.550,113748,14718,17879,94766,120821
2025-04-16 16:47:55.561,113746,14725,17888,94752,120806
2025-04-16 16:47:55.574,113762,14727,17897,94745,120800
2025-04-16 16:47:55.582,113769,14738,17900,94760,120831
2025-04-16 16:47:55.594,113786,14737,17898,94764,120827
2025-04-16 16:47:55.608,113774,14740,17899,94763,120822
2025-04-16 16:47:55.614,113758,14737,17905,94731,120775
2025-04-16 16:47:55.622,113751,14738,17906,94721,120765
2025-04-16 16:47:55.634,113740,14740,17909,94713,120754
2025-04-16 16:47:55.641,113731,14744,17913,94711,120744
2025-04-16 16:47:55.654,113731,14742,17916,94664,120721
2025-04-16 16:47:55.671,113726,14747,17923,94673,120709
2025-04-16 16:47:55.673,113737,14759,17930,94663,120705
2025-04-16 16:47:55.682,113760,14761,17937,94674,120713
2025-04-16 16:47:55.694,113760,14773,17947,94680,120718
2025-04-16 16:47:55.702,113761,14772,17954,94667,120704
2025-04-16 16:47:55.714,113744,14778,17952,94657,120677
2025-04-16 16:47:55.738,113753,14779,17963,94627,120638
2025-04-16 16:47:55.739,113748,14778,17960,94621,120635
2025-04-16 16:47:55.741,113739,14784,17965,94619,120615
2025-04-16 16:47:55.754,113744,14784,17971,94607,120612
2025-04-16 16:47:55.761,113739,14785,17964,94596,120624
2025-04-16 16:47:55.774,113727,14782,17964,94592,120609
2025-04-16 16:47:55.782,113698,14779,17958,94608,120597
2025-04-16 16:47:55.805,113680,14771,17950,94591,120596
2025-04-16 16:47:55.806,113630,14757,17939,94561,120541
2025-04-16 16:47:55.814,113613,14744,17924,94536,120524
2025-04-16 16:47:55.825,113593,14728,17913,94509,120490
2025-04-16 16:47:55.834,113588,14726,17904,94501,120470
2025-04-16 16:47:55.846,113592,14718,17896,94486,120454
2025-04-16 16:47:55.854,113602,14714,17892,94492,120459
2025-04-16 16:47:55.869,113620,14710,17889,94520,120464
2025-04-16 16:47:55.874,113636,14705,17882,94529,120490
2025-04-16 16:47:55.885,113628,14708,17881,94533,120510
2025-04-16 16:47:55.894,113657,14710,17880,94563,120518
2025-04-16 16:47:55.906,113666,14709,17877,94569,120523
2025-04-16 16:47:55.914,113687,14711,17878,94590,120553
2025-04-16 16:47:55.933,113691,14706,17880,94607,120568
2025-04-16 16:47:55.934,113692,14708,17878,94604,120560
2025-04-16 16:47:55.945,113690,14709,17877,94612,120559
2025-04-16 16:47:55.953,113686,14707,17880,94595,120558
2025-04-16 16:47:55.965,113681,14707,17880,94598,120541
2025-04-16 16:47:55.974,113678,14711,17882,94601,120550
2025-04-16 16:47:55.996,113669,14709,17879,94579,120541
2025-04-16 16:47:55.997,113659,14713,17882,94579,120536
2025-04-16 16:47:56.005,113658,14714,17876,94562,120530
2025-04-16 16:47:56.009,113658,14714,17876,94562,120530
2025-04-16 16:47:56.013,113649,14706,17873,94532,120498
2025-04-16 16:47:56.025,113637,14701,17872,94518,120479
2025-04-16 16:47:56.034,113624,14696,17869,94505,120437
2025-04-16 16:47:56.045,113609,14691,17858,94462,120417
2025-04-16 16:47:56.062,113596,14686,17856,94432,120387
2025-04-16 16:47:56.066,113571,14682,17851,94429,120383
2025-04-16 16:47:56.078,113553,14672,17845,94410,120368
2025-04-16 16:47:56.086,113533,14668,17837,94394,120359
2025-04-16 16:47:56.097,113502,14658,17824,94385,120347
2025-04-16 16:47:56.106,113472,14644,17814,94343,120291
2025-04-16 16:47:56.126,113443,14636,17806,94305,120235
2025-04-16 16:47:56.127,113426,14631,17801,94273,120228
2025-04-16 16:47:56.137,113420,14629,17801,94269,120228
2025-04-16 16:47:56.145,113418,14621,17789,94276,120235
2025-04-16 16:47:56.158,113412,14620,17790,94279,120227
2025-04-16 16:47:56.165,113388,14613,17779,94244,120211
2025-04-16 16:47:56.192,113362,14603,17772,94216,120170
2025-04-16 16:47:56.193,113335,14593,17763,94184,120133
2025-04-16 16:47:56.198,113313,14587,17761,94161,120111
2025-04-16 16:47:56.205,113295,14584,17754,94128,120062
2025-04-16 16:47:56.217,113280,14582,17752,94112,120062
2025-04-16 16:47:56.225,113274,14580,17745,94107,120042
2025-04-16 16:47:56.238,113245,14574,17745,94083,120040
2025-04-16 16:47:56.257,113228,14575,17743,94051,119999
2025-04-16 16:47:56.259,113205,14570,17736,94035,119985
2025-04-16 16:47:56.265,113186,14569,17736,94029,119956
2025-04-16 16:47:56.277,113163,14563,17732,94022,119945
2025-04-16 16:47:56.285,113142,14561,17731,94002,119935
2025-04-16 16:47:56.298,113119,14558,17724,93989,119936
2025-04-16 16:47:56.322,113078,14551,17715,93961,119913
2025-04-16 16:47:56.323,113032,14542,17711,93931,119863
2025-04-16 16:47:56.329,113000,14534,17702,93904,119814
2025-04-16 16:47:56.337,112971,14527,17702,93862,119770
2025-04-16 16:47:56.350,112939,14529,17693,93835,119753
2025-04-16 16:47:56.356,112927,14527,17690,93843,119745
2025-04-16 16:47:56.369,112916,14523,17686,93822,119741
2025-04-16 16:47:56.385,112879,14520,17684,93811,119714
2025-04-16 16:47:56.390,112861,14513,17681,93760,119670
2025-04-16 16:47:56.397,112832,14511,17677,93741,119656
2025-04-16 16:47:56.409,112809,14503,17676,93746,119653
2025-04-16 16:47:56.417,112801,14503,17669,93718,119626
2025-04-16 16:47:56.430,112790,14501,17667,93709,119631
2025-04-16 16:47:56.449,112775,14497,17664,93714,119619
2025-04-16 16:47:56.451,112747,14493,17659,93693,119597
2025-04-16 16:47:56.457,112733,14488,17656,93676,119588
2025-04-16 16:47:56.469,112706,14481,17648,93655,119550
2025-04-16 16:47:56.477,112671,14472,17641,93638,119525
2025-04-16 16:47:56.489,112639,14463,17637,93601,119500
2025-04-16 16:47:56.497,112617,14455,17626,93580,119465
2025-04-16 16:47:56.512,112589,14443,17616,93556,119400
2025-04-16 16:47:56.517,112560,14436,17607,93529,119412
2025-04-16 16:47:56.529,112548,14425,17597,93504,119377
2025-04-16 16:47:56.537,112510,14411,17587,93489,119333
2025-04-16 16:47:56.549,112486,14402,17571,93464,119316
2025-04-16 16:47:56.561,112452,14387,17561,93446,119292
2025-04-16 16:47:56.576,112445,14382,17547,93442,119279
2025-04-16 16:47:56.581,112435,14376,17545,93433,119267
2025-04-16 16:47:56.590,112454,14371,17535,93434,119271
2025-04-16 16:47:56.601,112493,14367,17530,93444,119299
2025-04-16 16:47:56.609,112504,14363,17524,93475,119327
2025-04-16 16:47:56.621,112527,14360,17518,93488,119355
2025-04-16 16:47:56.639,112537,14355,17516,93515,119370
2025-04-16 16:47:56.640,112536,14352,17510,93509,119371
2025-04-16 16:47:56.649,112549,14349,17510,93507,119356
2025-04-16 16:47:56.661,112556,14351,17512,93514,119359
2025-04-16 16:47:56.669,112602,14361,17519,93545,119381
2025-04-16 16:47:56.681,112618,14361,17522,93563,119414
2025-04-16 16:47:56.702,112649,14374,17531,93588,119441
2025-04-16 16:47:56.704,112669,14377,17539,93599,119454
2025-04-16 16:47:56.709,112680,14390,17544,93625,119487
2025-04-16 16:47:56.721,112688,14394,17551,93633,119491
2025-04-16 16:47:56.729,112680,14398,17556,93632,119507
2025-04-16 16:47:56.741,112680,14398,17556,93632,119507
2025-04-16 16:47:56.749,112685,14401,17561,93645,119503
2025-04-16 16:47:56.765,112681,14406,17568,93648,119492
2025-04-16 16:47:56.769,112678,14409,17569,93643,119480
2025-04-16 16:47:56.781,112682,14419,17576,93644,119490
2025-04-16 16:47:56.789,112681,14420,17587,93640,119487
2025-04-16 16:47:56.801,112670,14422,17585,93641,119502
2025-04-16 16:47:56.813,112656,14425,17589,93631,119463
2025-04-16 16:47:56.828,112656,14425,17589,93631,119463
2025-04-16 16:47:56.830,112656,14425,17589,93631,119463
2025-04-16 16:47:56.831,112636,14429,17599,93601,119415
2025-04-16 16:47:56.833,112625,14441,17603,93598,119424
2025-04-16 16:47:56.841,112613,14437,17607,93590,119416
2025-04-16 16:47:56.852,112608,14439,17605,93590,119419
2025-04-16 16:47:56.861,112604,14439,17607,93578,119402
2025-04-16 16:47:56.873,112591,14438,17611,93571,119400
2025-04-16 16:47:56.893,112591,14443,17616,93568,119395
2025-04-16 16:47:56.894,112577,14446,17619,93559,119394
2025-04-16 16:47:56.901,112571,14445,17619,93562,119399
2025-04-16 16:47:56.913,112561,14446,17618,93560,119371
2025-04-16 16:47:56.922,112531,14448,17621,93530,119355
2025-04-16 16:47:56.933,112510,14445,17620,93504,119325
2025-04-16 16:47:56.941,112478,14444,17619,93474,119293
2025-04-16 16:47:56.956,112441,14445,17620,93464,119266
2025-04-16 16:47:56.961,112409,14447,17620,93434,119234
2025-04-16 16:47:56.974,112390,14444,17625,93403,119203
2025-04-16 16:47:56.981,112360,14454,17626,93373,119160
2025-04-16 16:47:56.993,112352,14461,17639,93341,119131
2025-04-16 16:47:57.001,112328,14463,17649,93354,119122
2025-04-16 16:47:57.020,112319,14473,17657,93333,119105
2025-04-16 16:47:57.025,112302,14482,17668,93319,119089
2025-04-16 16:47:57.033,112301,14489,17680,93312,119070
2025-04-16 16:47:57.045,112296,14505,17688,93309,119072
2025-04-16 16:47:57.053,112302,14514,17703,93300,119085
2025-04-16 16:47:57.065,112307,14522,17712,93300,119070
2025-04-16 16:47:57.083,112302,14535,17724,93304,119083
2025-04-16 16:47:57.085,112303,14539,17733,93314,119092
2025-04-16 16:47:57.093,112315,14550,17744,93313,119095
2025-04-16 16:47:57.105,112325,14557,17757,93318,119111
2025-04-16 16:47:57.113,112327,14571,17765,93345,119107
2025-04-16 16:47:57.125,112329,14571,17776,93358,119125
2025-04-16 16:47:57.147,112330,14577,17782,93359,119144
2025-04-16 16:47:57.148,112316,14581,17794,93355,119118
2025-04-16 16:47:57.153,112302,14595,17792,93350,119129
2025-04-16 16:47:57.165,112314,14592,17800,93341,119124
2025-04-16 16:47:57.174,112300,14600,17803,93340,119100
2025-04-16 16:47:57.185,112294,14605,17809,93319,119101
2025-04-16 16:47:57.193,112290,14602,17814,93326,119101
2025-04-16 16:47:57.210,112280,14602,17807,93314,119089
2025-04-16 16:47:57.216,112253,14601,17805,93288,119071
2025-04-16 16:47:57.225,112236,14595,17803,93289,119061
2025-04-16 16:47:57.233,112222,14589,17798,93277,119045
2025-04-16 16:47:57.245,112208,14588,17795,93274,119043
2025-04-16 16:47:57.257,112194,14583,17795,93264,119024
2025-04-16 16:47:57.273,112190,14580,17784,93263,119014
2025-04-16 16:47:57.276,112176,14575,17775,93252,119005
2025-04-16 16:47:57.285,112206,14571,17777,93245,119004
2025-04-16 16:47:57.296,112203,14567,17776,93256,119009
2025-04-16 16:47:57.305,112195,14561,17765,93265,119034
2025-04-16 16:47:57.317,112203,14550,17756,93259,119018
2025-04-16 16:47:57.338,112191,14546,17750,93245,119011
2025-04-16 16:47:57.340,112200,14540,17748,93246,119011
2025-04-16 16:47:57.344,112212,14540,17746,93258,119041
2025-04-16 16:47:57.357,112236,14541,17741,93265,119055
2025-04-16 16:47:57.365,112239,14541,17747,93281,119081
2025-04-16 16:47:57.377,112261,14548,17744,93297,119097
2025-04-16 16:47:57.385,112276,14543,17743,93310,119099
2025-04-16 16:47:57.401,112284,14552,17746,93323,119124
2025-04-16 16:47:57.405,112296,14553,17753,93329,119138
2025-04-16 16:47:57.416,112299,14560,17756,93341,119157
2025-04-16 16:47:57.424,112315,14566,17762,93354,119181
2025-04-16 16:47:57.436,112309,14565,17766,93359,119183
2025-04-16 16:47:57.445,112299,14566,17768,93355,119171
2025-04-16 16:47:57.465,112302,14565,17769,93348,119161
2025-04-16 16:47:57.466,112296,14564,17768,93344,119169
2025-04-16 16:47:57.477,112289,14573,17774,93322,119132
2025-04-16 16:47:57.488,112298,14575,17774,93337,119160
2025-04-16 16:47:57.497,112294,14584,17785,93336,119158
2025-04-16 16:47:57.508,112309,14583,17787,93346,119163
2025-04-16 16:47:57.528,112310,14588,17793,93359,119171
2025-04-16 16:47:57.529,112328,14598,17799,93370,119193
2025-04-16 16:47:57.537,112324,14602,17806,93372,119201
2025-04-16 16:47:57.549,112326,14600,17806,93390,119220
2025-04-16 16:47:57.556,112317,14607,17813,93396,119220
2025-04-16 16:47:57.569,112322,14605,17813,93373,119199
2025-04-16 16:47:57.576,112320,14605,17809,93374,119183
2025-04-16 16:47:57.591,112331,14609,17818,93371,119188
2025-04-16 16:47:57.597,112353,14617,17828,93383,119206
2025-04-16 16:47:57.608,112358,14623,17834,93400,119211
2025-04-16 16:47:57.621,112377,14630,17838,93410,119230
2025-04-16 16:47:57.622,112377,14630,17838,93410,119230
2025-04-16 16:47:57.628,112370,14641,17847,93437,119267
2025-04-16 16:47:57.636,112373,14642,17850,93447,119265
2025-04-16 16:47:57.655,112356,14638,17854,93434,119249
2025-04-16 16:47:57.656,112350,14642,17856,93418,119228
2025-04-16 16:47:57.669,112350,14648,17857,93407,119227
2025-04-16 16:47:57.677,112356,14653,17866,93405,119228
2025-04-16 16:47:57.689,112355,14660,17871,93423,119235
2025-04-16 16:47:57.697,112360,14655,17878,93415,119239
2025-04-16 16:47:57.718,112366,14668,17884,93420,119245
2025-04-16 16:47:57.719,112354,14662,17883,93417,119228
2025-04-16 16:47:57.729,112341,14665,17882,93409,119222
2025-04-16 16:47:57.740,112327,14666,17884,93390,119209
2025-04-16 16:47:57.748,112319,14668,17889,93397,119213
2025-04-16 16:47:57.761,112324,14673,17895,93414,119233
2025-04-16 16:47:57.781,112343,14682,17902,93429,119245
2025-04-16 16:47:57.782,112340,14680,17903,93451,119278
2025-04-16 16:47:57.788,112336,14690,17910,93462,119269
2025-04-16 16:47:57.801,112315,14688,17912,93450,119274
2025-04-16 16:47:57.808,112304,14683,17911,93455,119283
2025-04-16 16:47:57.821,112306,14679,17911,93448,119267
2025-04-16 16:47:57.828,112297,14683,17910,93433,119253
2025-04-16 16:47:57.846,112288,14681,17913,93425,119259
2025-04-16 16:47:57.849,112288,14686,17913,93429,119260
2025-04-16 16:47:57.861,112281,14688,17914,93436,119253
2025-04-16 16:47:57.869,112279,14685,17915,93423,119249
2025-04-16 16:47:57.880,112269,14691,17916,93424,119277
2025-04-16 16:47:57.889,112258,14685,17911,93434,119268
2025-04-16 16:47:57.909,112231,14678,17906,93425,119252
2025-04-16 16:47:57.911,112199,14668,17898,93393,119202
2025-04-16 16:47:57.921,112176,14660,17886,93362,119170
2025-04-16 16:47:57.929,112137,14651,17882,93349,119150
2025-04-16 16:47:57.941,112129,14641,17867,93340,119134
2025-04-16 16:47:57.949,112100,14631,17854,93309,119104
2025-04-16 16:47:57.974,112087,14620,17845,93292,119083
2025-04-16 16:47:57.975,112060,14611,17836,93287,119085
2025-04-16 16:47:57.981,112045,14600,17821,93280,119069
2025-04-16 16:47:57.988,112040,14583,17818,93276,119075
2025-04-16 16:47:58.000,112030,14578,17800,93264,119066
2025-04-16 16:47:58.009,112035,14572,17795,93289,119062
2025-04-16 16:47:58.020,112052,14563,17784,93282,119076
2025-04-16 16:47:58.037,112076,14560,17779,93315,119118
2025-04-16 16:47:58.040,112094,14557,17775,93328,119127
2025-04-16 16:47:58.053,112108,14551,17774,93348,119175
2025-04-16 16:47:58.060,112123,14548,17767,93365,119190
2025-04-16 16:47:58.073,112138,14541,17760,93363,119190
2025-04-16 16:47:58.081,112145,14538,17756,93390,119224
2025-04-16 16:47:58.102,112152,14536,17755,93394,119230
2025-04-16 16:47:58.103,112170,14537,17750,93394,119237
2025-04-16 16:47:58.113,112180,14532,17753,93405,119260
2025-04-16 16:47:58.121,112200,14538,17753,93427,119262
2025-04-16 16:47:58.132,112208,14536,17757,93437,119272
2025-04-16 16:47:58.141,112195,14532,17751,93447,119279
2025-04-16 16:47:58.165,112176,14530,17746,93443,119286
2025-04-16 16:47:58.166,112163,14526,17741,93429,119265
2025-04-16 16:47:58.172,112147,14523,17745,93415,119247
2025-04-16 16:47:58.181,112145,14524,17739,93426,119255
2025-04-16 16:47:58.192,112142,14522,17739,93432,119232
2025-04-16 16:47:58.200,112134,14524,17736,93422,119264
2025-04-16 16:47:58.212,112131,14516,17738,93426,119268
2025-04-16 16:47:58.229,112136,14516,17737,93427,119248
2025-04-16 16:47:58.233,112114,14514,17737,93415,119237
2025-04-16 16:47:58.240,112124,14518,17732,93427,119249
2025-04-16 16:47:58.252,112124,14513,17735,93433,119259
2025-04-16 16:47:58.264,112118,14518,17734,93442,119270
2025-04-16 16:47:58.272,112121,14515,17735,93456,119285
2025-04-16 16:47:58.292,112113,14513,17734,93464,119275
2025-04-16 16:47:58.293,112116,14507,17730,93454,119290
2025-04-16 16:47:58.305,112104,14502,17726,93438,119274
2025-04-16 16:47:58.313,112118,14498,17728,93456,119286
2025-04-16 16:47:58.324,112106,14503,17720,93468,119311
2025-04-16 16:47:58.332,112064,14488,17708,93457,119286
2025-04-16 16:47:58.355,111985,14469,17689,93436,119253
2025-04-16 16:47:58.356,111889,14434,17658,93359,119152
2025-04-16 16:47:58.364,111804,14392,17620,93240,118998
2025-04-16 16:47:58.372,111760,14354,17584,93094,118854
2025-04-16 16:47:58.385,111743,14330,17561,93006,118764
2025-04-16 16:47:58.392,111749,14317,17541,92963,118741
2025-04-16 16:47:58.403,111728,14297,17525,92951,118739
2025-04-16 16:47:58.419,111702,14291,17512,92916,118705
2025-04-16 16:47:58.424,111650,14293,17510,92907,118688
2025-04-16 16:47:58.428,111650,14293,17510,92907,118688
2025-04-16 16:47:58.432,111585,14305,17523,92970,118770
2025-04-16 16:47:58.444,111573,14314,17533,93008,118822
2025-04-16 16:47:58.452,111593,14326,17545,93044,118859
2025-04-16 16:47:58.465,111610,14334,17553,93085,118916
2025-04-16 16:47:58.483,111610,14344,17559,93131,118969
2025-04-16 16:47:58.484,111635,14342,17564,93164,118996
2025-04-16 16:47:58.493,111622,14343,17563,93151,119005
2025-04-16 16:47:58.504,111645,14344,17564,93148,119012
2025-04-16 16:47:58.513,111667,14349,17566,93152,119022
2025-04-16 16:47:58.524,111687,14348,17573,93159,119037
2025-04-16 16:47:58.532,111681,14344,17570,93150,119046
2025-04-16 16:47:58.547,111695,14352,17569,93138,119020
2025-04-16 16:47:58.556,111710,14348,17574,93129,119029
2025-04-16 16:47:58.565,111701,14351,17577,93148,119048
2025-04-16 16:47:58.576,111709,14347,17572,93139,119026
2025-04-16 16:47:58.584,111686,14341,17569,93123,119026
2025-04-16 16:47:58.596,111671,14336,17563,93088,118993
2025-04-16 16:47:58.611,111660,14326,17562,93071,118969
2025-04-16 16:47:58.617,111641,14316,17547,93056,118931
2025-04-16 16:47:58.624,111622,14299,17538,93037,118907
2025-04-16 16:47:58.636,111610,14290,17528,93020,118873
2025-04-16 16:47:58.644,111596,14275,17517,92984,118834
2025-04-16 16:47:58.656,111586,14259,17516,92957,118806
2025-04-16 16:47:58.674,112028,14261,17706,92890,118808
2025-04-16 16:47:58.676,111981,14239,17684,93038,119020
2025-04-16 16:47:58.685,111931,14218,17665,92981,118954
2025-04-16 16:47:58.696,111921,14203,17649,92947,118918
2025-04-16 16:47:58.705,111892,14178,17624,92930,118903
2025-04-16 16:47:58.716,111872,14166,17612,92887,118853
2025-04-16 16:47:58.738,111863,14157,17601,92888,118843
2025-04-16 16:47:58.739,111868,14148,17589,92890,118841
2025-04-16 16:47:58.744,111872,14148,17594,92895,118841
2025-04-16 16:47:58.756,111878,14143,17587,92889,118826
2025-04-16 16:47:58.764,111890,14150,17593,92904,118838
2025-04-16 16:47:58.776,111900,14156,17599,92902,118819
2025-04-16 16:47:58.784,111894,14159,17607,92915,118838
2025-04-16 16:47:58.801,111895,14168,17616,92922,118832
2025-04-16 16:47:58.805,111901,14179,17621,92942,118845
2025-04-16 16:47:58.816,111915,14185,17628,92950,118844
2025-04-16 16:47:58.828,111913,14193,17640,92941,118824
2025-04-16 16:47:58.836,111923,14203,17654,92932,118809
2025-04-16 16:47:58.848,111922,14208,17657,92916,118781
2025-04-16 16:47:58.865,111916,14214,17664,92910,118768
2025-04-16 16:47:58.868,111910,14221,17678,92880,118727
2025-04-16 16:47:58.877,111913,14227,17692,92868,118703
2025-04-16 16:47:58.888,111925,14246,17711,92857,118693
2025-04-16 16:47:58.896,111925,14248,17715,92869,118674
2025-04-16 16:47:58.908,111934,14262,17732,92849,118657
2025-04-16 16:47:58.927,111929,14274,17743,92848,118645
2025-04-16 16:47:58.929,111951,14285,17760,92823,118617
2025-04-16 16:47:58.936,111995,14308,17787,92833,118603
2025-04-16 16:47:58.948,112052,14334,17815,92859,118645
2025-04-16 16:47:58.956,112156,14366,17850,92900,118713
2025-04-16 16:47:58.968,112225,14395,17879,92971,118779
2025-04-16 16:47:58.975,112290,14418,17906,93018,118846
2025-04-16 16:47:58.991,112313,14435,17924,93041,118887
2025-04-16 16:47:58.996,112351,14448,17954,93053,118893
2025-04-16 16:47:59.008,112378,14474,17975,93058,118907
2025-04-16 16:47:59.016,112436,14491,17995,93089,118920
2025-04-16 16:47:59.028,112500,14511,18024,93119,118968
2025-04-16 16:47:59.040,112577,14539,18058,93177,119036
2025-04-16 16:47:59.057,112677,14568,18089,93250,119125
2025-04-16 16:47:59.060,112783,14599,18123,93346,119229
2025-04-16 16:47:59.069,112873,14630,18158,93423,119339
2025-04-16 16:47:59.079,112959,14652,18189,93509,119438
2025-04-16 16:47:59.088,113040,14678,18217,93585,119532
2025-04-16 16:47:59.100,113115,14699,18238,93651,119604
2025-04-16 16:47:59.120,113176,14716,18259,93699,119650
2025-04-16 16:47:59.122,113247,14732,18281,93737,119707
2025-04-16 16:47:59.128,113301,14751,18298,93784,119752
2025-04-16 16:47:59.140,113368,14774,18325,93834,119813
2025-04-16 16:47:59.148,113434,14793,18346,93903,119874
2025-04-16 16:47:59.160,113504,14810,18360,93948,119938
2025-04-16 16:47:59.168,113549,14821,18374,93982,119963
2025-04-16 16:47:59.183,113580,14833,18387,93987,119976
2025-04-16 16:47:59.188,113621,14853,18406,94008,119993
2025-04-16 16:47:59.200,113676,14867,18428,94056,120038
2025-04-16 16:47:59.208,113749,14884,18443,94079,120072
2025-04-16 16:47:59.220,113830,14905,18458,94118,120118
2025-04-16 16:47:59.228,113888,14923,18482,94178,120174
2025-04-16 16:47:59.247,113914,14930,18484,94220,120212
2025-04-16 16:47:59.248,113906,14931,18487,94221,120228
2025-04-16 16:47:59.259,113865,14924,18487,94193,120177
2025-04-16 16:47:59.268,113804,14920,18475,94176,120165
2025-04-16 16:47:59.280,113747,14911,18461,94143,120098
2025-04-16 16:47:59.287,113695,14891,18447,94095,120040
2025-04-16 16:47:59.310,113676,14882,18435,94031,119975
2025-04-16 16:47:59.312,113659,14877,18426,94009,119941
2025-04-16 16:47:59.319,113685,14875,18421,94018,119951
2025-04-16 16:47:59.332,113712,14871,18417,94034,119995
2025-04-16 16:47:59.340,113708,14864,18406,94082,120026
2025-04-16 16:47:59.351,113705,14844,18387,94100,120076
2025-04-16 16:47:59.372,113652,14830,18366,94091,120056
2025-04-16 16:47:59.374,113609,14813,18350,94093,120058
2025-04-16 16:47:59.381,113583,14796,18338,94092,120074
2025-04-16 16:47:59.391,113600,14785,18326,94111,120081
2025-04-16 16:47:59.400,113587,14779,18310,94130,120106
2025-04-16 16:47:59.411,113573,14765,18296,94126,120100
2025-04-16 16:47:59.419,113555,14752,18274,94100,120077
2025-04-16 16:47:59.436,113503,14731,18256,94042,120019
2025-04-16 16:47:59.437,113503,14731,18256,94042,120019
2025-04-16 16:47:59.439,113425,14704,18231,93950,119928
2025-04-16 16:47:59.452,113386,14699,18219,93897,119862
2025-04-16 16:47:59.460,113376,14690,18214,93854,119785
2025-04-16 16:47:59.472,113348,14689,18203,93811,119768
2025-04-16 16:47:59.480,113232,14687,18199,93762,119686
2025-04-16 16:47:59.499,113248,14689,18193,93724,119668
2025-04-16 16:47:59.500,113244,14688,18192,93699,119642
2025-04-16 16:47:59.512,113256,14690,18197,93681,119625
2025-04-16 16:47:59.519,113272,14699,18204,93669,119621
2025-04-16 16:47:59.532,113309,14707,18213,93690,119636
2025-04-16 16:47:59.539,113349,14719,18216,93710,119661
2025-04-16 16:47:59.563,113385,14731,18230,93728,119689
2025-04-16 16:47:59.564,113401,14734,18236,93774,119731
2025-04-16 16:47:59.571,113429,14735,18238,93790,119779
2025-04-16 16:47:59.584,113407,14740,18239,93804,119797
2025-04-16 16:47:59.592,113406,14739,18236,93819,119813
2025-04-16 16:47:59.603,113383,14737,18233,93841,119821
2025-04-16 16:47:59.611,113386,14733,18233,93848,119842
2025-04-16 16:47:59.627,113373,14730,18233,93843,119830
2025-04-16 16:47:59.631,113362,14726,18223,93849,119839
2025-04-16 16:47:59.644,113333,14716,18218,93843,119827
2025-04-16 16:47:59.652,113316,14702,18205,93840,119811
2025-04-16 16:47:59.663,113298,14693,18191,93821,119795
2025-04-16 16:47:59.671,113287,14689,18183,93808,119770
2025-04-16 16:47:59.691,113260,14676,18172,93794,119759
2025-04-16 16:47:59.692,113238,14669,18165,93780,119740
2025-04-16 16:47:59.704,113223,14659,18152,93755,119705
2025-04-16 16:47:59.712,113212,14652,18146,93727,119677
2025-04-16 16:47:59.724,113205,14639,18142,93697,119626
2025-04-16 16:47:59.732,113185,14638,18130,93670,119589
2025-04-16 16:47:59.753,113182,14636,18127,93661,119577
2025-04-16 16:47:59.755,113189,14635,18126,93643,119559
2025-04-16 16:47:59.763,113202,14632,18122,93647,119561
2025-04-16 16:47:59.771,113209,14635,18125,93633,119538
2025-04-16 16:47:59.784,113192,14631,18125,93609,119524
2025-04-16 16:47:59.796,113187,14634,18129,93615,119510
2025-04-16 16:47:59.816,113191,14627,18118,93597,119494
2025-04-16 16:47:59.817,113141,14631,18123,93583,119483
2025-04-16 16:47:59.824,113146,14624,18118,93578,119457
2025-04-16 16:47:59.835,113110,14620,18108,93539,119432
2025-04-16 16:47:59.843,113054,14611,18097,93520,119399
2025-04-16 16:47:59.855,113004,14599,18090,93490,119369
2025-04-16 16:47:59.864,112979,14593,18081,93487,119333
2025-04-16 16:47:59.879,112943,14588,18077,93494,119347
2025-04-16 16:47:59.883,112916,14581,18079,93513,119369
2025-04-16 16:47:59.896,112937,14583,18078,93542,119426
2025-04-16 16:47:59.903,112957,14582,18075,93597,119465
2025-04-16 16:47:59.916,112992,14585,18078,93646,119552
2025-04-16 16:47:59.923,113021,14584,18080,93704,119616
2025-04-16 16:47:59.942,113102,14593,18093,93749,119665
2025-04-16 16:47:59.944,113421,14603,17942,93830,119709
2025-04-16 16:47:59.955,113453,14599,17936,93564,119401
2025-04-16 16:47:59.963,113429,14590,17922,93572,119432
2025-04-16 16:47:59.976,113366,14572,17901,93559,119379
2025-04-16 16:47:59.983,113295,14545,17874,93489,119311
2025-04-16 16:48:00.008,113213,14520,17842,93401,119195
2025-04-16 16:48:00.009,113148,14489,17816,93316,119109
2025-04-16 16:48:00.016,113095,14472,17799,93264,119057
2025-04-16 16:48:00.028,113077,14453,17783,93243,119011
2025-04-16 16:48:00.036,113063,14438,17764,93226,118990
2025-04-16 16:48:00.048,113030,14425,17750,93189,118968
2025-04-16 16:48:00.055,113014,14412,17735,93169,118943
2025-04-16 16:48:00.072,112984,14397,17722,93143,118896
2025-04-16 16:48:00.076,112972,14385,17707,93101,118863
2025-04-16 16:48:00.088,112953,14389,17705,93068,118829
2025-04-16 16:48:00.095,112948,14391,17707,93064,118808
2025-04-16 16:48:00.108,112965,14393,17707,93078,118831
2025-04-16 16:48:00.115,112964,14398,17712,93100,118835
2025-04-16 16:48:00.137,112968,14401,17715,93104,118841
2025-04-16 16:48:00.138,112967,14403,17726,93104,118839
2025-04-16 16:48:00.147,112981,14410,17732,93127,118861
2025-04-16 16:48:00.156,113018,14426,17748,93154,118889
2025-04-16 16:48:00.168,113051,14439,17762,93195,118923
2025-04-16 16:48:00.176,113110,14455,17776,93234,118972
2025-04-16 16:48:00.200,113145,14471,17800,93307,119044
2025-04-16 16:48:00.201,113182,14487,17810,93376,119116
2025-04-16 16:48:00.208,113175,14482,17812,93440,119154
2025-04-16 16:48:00.216,113170,14489,17815,93402,119120
2025-04-16 16:48:00.227,113151,14491,17819,93380,119091
2025-04-16 16:48:00.239,113167,14505,17833,93395,119090
2025-04-16 16:48:00.240,113167,14505,17833,93395,119090
2025-04-16 16:48:00.248,113259,14532,17862,93463,119149
2025-04-16 16:48:00.265,113271,14539,17870,93508,119202
2025-04-16 16:48:00.268,113282,14547,17876,93524,119223
2025-04-16 16:48:00.280,113263,14545,17876,93532,119225
2025-04-16 16:48:00.288,113265,14549,17880,93547,119206
2025-04-16 16:48:00.300,113265,14554,17889,93559,119227
2025-04-16 16:48:00.307,113276,14556,17895,93587,119250
2025-04-16 16:48:00.329,113280,14566,17896,93607,119272
2025-04-16 16:48:00.330,113275,14569,17899,93613,119281
2025-04-16 16:48:00.339,113293,14575,17906,93653,119296
2025-04-16 16:48:00.347,113274,14572,17906,93672,119330
2025-04-16 16:48:00.360,113246,14575,17906,93672,119301
2025-04-16 16:48:00.367,113222,14573,17908,93653,119291
2025-04-16 16:48:00.393,113221,14574,17910,93646,119265
2025-04-16 16:48:00.394,113222,14586,17916,93666,119277
2025-04-16 16:48:00.399,113244,14594,17926,93686,119296
2025-04-16 16:48:00.407,113266,14604,17935,93709,119334
2025-04-16 16:48:00.419,113296,14616,17947,93745,119372
2025-04-16 16:48:00.427,113300,14623,17958,93774,119413
2025-04-16 16:48:00.439,113320,14631,17971,93814,119437
2025-04-16 16:48:00.456,113326,14635,17973,93837,119450
2025-04-16 16:48:00.459,113353,14642,17984,93868,119493
2025-04-16 16:48:00.468,113361,14649,17995,93892,119507
2025-04-16 16:48:00.479,113370,14658,17994,93902,119509
2025-04-16 16:48:00.487,113368,14666,18005,93927,119528
2025-04-16 16:48:00.500,113377,14668,18010,93960,119573
2025-04-16 16:48:00.521,113340,14666,18005,93997,119575
2025-04-16 16:48:00.523,113299,14652,17992,93955,119542
2025-04-16 16:48:00.531,113238,14646,17987,93885,119440
2025-04-16 16:48:00.540,113217,14645,17983,93836,119378
2025-04-16 16:48:00.552,113225,14647,17988,93836,119366
2025-04-16 16:48:00.559,113243,14655,17997,93850,119389
2025-04-16 16:48:00.585,113267,14664,18000,93875,119422
2025-04-16 16:48:00.586,113282,14669,18010,93897,119430
2025-04-16 16:48:00.592,113259,14670,18009,93907,119418
2025-04-16 16:48:00.599,113224,14669,18009,93888,119419
2025-04-16 16:48:00.611,113185,14663,18005,93885,119387
2025-04-16 16:48:00.619,113154,14663,18005,93860,119341
2025-04-16 16:48:00.632,113153,14665,18017,93854,119321
2025-04-16 16:48:00.648,113157,14674,18015,93843,119337
2025-04-16 16:48:00.651,113138,14672,18017,93851,119318
2025-04-16 16:48:00.660,113128,14671,18016,93835,119292
2025-04-16 16:48:00.671,113080,14672,18017,93809,119256
2025-04-16 16:48:00.680,113032,14672,18024,93783,119217
2025-04-16 16:48:00.691,113019,14675,18023,93765,119173
2025-04-16 16:48:00.711,113005,14682,18033,93751,119184
2025-04-16 16:48:00.712,113000,14685,18034,93770,119175
2025-04-16 16:48:00.719,113007,14689,18044,93774,119174
2025-04-16 16:48:00.732,113002,14693,18053,93773,119206
2025-04-16 16:48:00.743,112981,14697,18052,93776,119193
2025-04-16 16:48:00.751,112942,14692,18052,93778,119177
2025-04-16 16:48:00.775,112905,14682,18044,93744,119120
2025-04-16 16:48:00.776,112885,14684,18039,93703,119084
2025-04-16 16:48:00.784,112864,14674,18032,93699,119052
2025-04-16 16:48:00.792,112856,14673,18026,93676,119039
2025-04-16 16:48:00.804,112835,14665,18016,93670,119025
2025-04-16 16:48:00.811,112798,14656,18008,93664,119005
2025-04-16 16:48:00.824,112740,14639,17987,93664,118989
2025-04-16 16:48:00.839,112691,14616,17962,93620,118929
2025-04-16 16:48:00.843,112643,14596,17944,93548,118851
2025-04-16 16:48:00.852,112637,14581,17928,93535,118803
2025-04-16 16:48:00.864,112640,14577,17920,93537,118820
2025-04-16 16:48:00.871,112695,14574,17919,93565,118834
2025-04-16 16:48:00.883,112727,14566,17911,93598,118869
2025-04-16 16:48:00.902,112741,14563,17910,93636,118925
2025-04-16 16:48:00.904,112739,14554,17897,93662,118943
2025-04-16 16:48:00.911,112732,14537,17888,93670,118933
2025-04-16 16:48:00.923,112726,14536,17879,93653,118930
2025-04-16 16:48:00.931,112729,14522,17869,93659,118928
2025-04-16 16:48:00.943,112726,14520,17865,93666,118927
2025-04-16 16:48:00.966,112766,14520,17863,93672,118941
2025-04-16 16:48:00.967,112769,14514,17858,93682,118952
2025-04-16 16:48:00.975,112770,14504,17850,93707,118958
2025-04-16 16:48:00.983,112745,14500,17839,93692,118922
2025-04-16 16:48:00.995,112718,14487,17832,93649,118886
2025-04-16 16:48:01.003,112695,14489,17824,93628,118843
2025-04-16 16:48:01.029,112693,14486,17825,93609,118840
2025-04-16 16:48:01.031,112714,14491,17823,93623,118840
2025-04-16 16:48:01.035,112706,14491,17823,93624,118838
2025-04-16 16:48:01.047,112714,14491,17822,93617,118823
2025-04-16 16:48:01.048,112714,14491,17822,93617,118823
2025-04-16 16:48:01.056,112643,14480,17813,93578,118766
2025-04-16 16:48:01.063,112617,14474,17813,93546,118722
2025-04-16 16:48:01.076,112600,14479,17807,93507,118700
2025-04-16 16:48:01.093,112575,14479,17810,93511,118678
2025-04-16 16:48:01.095,112590,14485,17815,93506,118688
2025-04-16 16:48:01.104,112593,14493,17818,93513,118691
2025-04-16 16:48:01.116,112595,14496,17826,93531,118714
2025-04-16 16:48:01.123,112592,14497,17826,93543,118716
2025-04-16 16:48:01.135,112573,14485,17824,93538,118703
2025-04-16 16:48:01.156,112552,14491,17820,93514,118687
2025-04-16 16:48:01.158,112548,14484,17821,93494,118655
2025-04-16 16:48:01.164,112546,14481,17821,93475,118644
2025-04-16 16:48:01.175,112537,14489,17823,93486,118638
2025-04-16 16:48:01.183,112544,14494,17828,93477,118648
2025-04-16 16:48:01.195,112554,14491,17828,93495,118656
2025-04-16 16:48:01.220,112548,14494,17832,93510,118669
2025-04-16 16:48:01.222,112531,14490,17837,93509,118667
2025-04-16 16:48:01.227,112519,14489,17831,93502,118654
2025-04-16 16:48:01.236,112495,14492,17836,93494,118665
2025-04-16 16:48:01.248,112492,14494,17839,93501,118659
2025-04-16 16:48:01.255,112510,14499,17845,93481,118651
2025-04-16 16:48:01.267,112510,14504,17844,93501,118660
2025-04-16 16:48:01.285,112505,14507,17851,93513,118673
2025-04-16 16:48:01.288,112492,14510,17850,93499,118662
2025-04-16 16:48:01.295,112474,14512,17854,93486,118657
2025-04-16 16:48:01.307,112467,14512,17863,93487,118631
2025-04-16 16:48:01.316,112458,14521,17867,93487,118636
2025-04-16 16:48:01.327,112452,14524,17872,93487,118635
2025-04-16 16:48:01.347,112450,14526,17875,93476,118618
2025-04-16 16:48:01.349,112441,14532,17882,93469,118608
2025-04-16 16:48:01.356,112443,14543,17888,93471,118610
2025-04-16 16:48:01.367,112447,14545,17898,93469,118623
2025-04-16 16:48:01.375,112453,14555,17908,93474,118619
2025-04-16 16:48:01.386,112444,14562,17916,93485,118625
2025-04-16 16:48:01.395,112438,14569,17921,93502,118646
2025-04-16 16:48:01.410,112428,14570,17925,93495,118638
2025-04-16 16:48:01.415,112393,14571,17934,93488,118637
2025-04-16 16:48:01.427,112082,14575,17964,93476,118629
2025-04-16 16:48:01.440,111983,14579,17980,93552,118720
2025-04-16 16:48:01.447,111998,14588,17987,93574,118709
2025-04-16 16:48:01.476,112012,14596,17995,93595,118737
2025-04-16 16:48:01.477,112018,14602,18009,93600,118747
2025-04-16 16:48:01.479,112005,14609,18017,93620,118779
2025-04-16 16:48:01.486,111987,14608,18012,93623,118768
2025-04-16 16:48:01.499,111965,14611,18011,93615,118746
2025-04-16 16:48:01.506,111932,14605,18006,93582,118724
2025-04-16 16:48:01.519,111916,14602,18008,93566,118691
2025-04-16 16:48:01.539,111901,14599,18006,93565,118676
2025-04-16 16:48:01.540,111873,14589,17994,93563,118672
2025-04-16 16:48:01.547,111848,14573,17980,93529,118645
2025-04-16 16:48:01.559,111813,14553,17963,93507,118586
2025-04-16 16:48:01.567,111782,14535,17940,93454,118545
2025-04-16 16:48:01.579,111731,14511,17909,93453,118518
2025-04-16 16:48:01.587,111685,14480,17879,93397,118483
2025-04-16 16:48:01.605,111629,14454,17853,93340,118403
2025-04-16 16:48:01.607,111568,14427,17827,93280,118322
2025-04-16 16:48:01.619,111493,14396,17791,93236,118271
2025-04-16 16:48:01.627,111359,14355,17749,93174,118195
2025-04-16 16:48:01.639,111174,14283,17680,93030,118015
2025-04-16 16:48:01.651,110972,14215,17615,92835,117779
2025-04-16 16:48:01.667,110817,14167,17563,92613,117546
2025-04-16 16:48:01.668,110697,14144,17541,92460,117363
2025-04-16 16:48:01.679,110637,14143,17535,92381,117285
2025-04-16 16:48:01.691,110609,14155,17542,92341,117260
2025-04-16 16:48:01.698,110579,14168,17553,92335,117260
2025-04-16 16:48:01.711,110552,14188,17573,92368,117298
2025-04-16 16:48:01.730,110558,14206,17596,92467,117411
2025-04-16 16:48:01.732,110595,14230,17614,92593,117548
2025-04-16 16:48:01.739,110634,14259,17638,92714,117692
2025-04-16 16:48:01.751,110675,14285,17666,92844,117834
2025-04-16 16:48:01.759,110739,14312,17692,92980,117982
2025-04-16 16:48:01.771,111034,14345,17696,93117,118142
2025-04-16 16:48:01.778,111177,14370,17717,93183,118210
2025-04-16 16:48:01.793,111262,14394,17741,93304,118337
2025-04-16 16:48:01.799,111341,14409,17754,93415,118471
2025-04-16 16:48:01.811,111402,14418,17765,93488,118565
2025-04-16 16:48:01.819,111450,14427,17773,93536,118580
2025-04-16 16:48:01.831,111486,14435,17783,93566,118659
2025-04-16 16:48:01.839,111548,14447,17793,93631,118723
2025-04-16 16:48:01.856,111604,14460,17809,93712,118811
2025-04-16 16:48:01.857,111604,14460,17809,93712,118811
2025-04-16 16:48:01.859,111736,14479,17829,93831,118939
2025-04-16 16:48:01.870,111776,14491,17837,93876,118989
2025-04-16 16:48:01.879,111811,14502,17854,93921,119027
2025-04-16 16:48:01.891,111861,14508,17865,93954,119067
2025-04-16 16:48:01.899,111878,14521,17869,94007,119101
2025-04-16 16:48:01.921,111909,14531,17881,94038,119149
2025-04-16 16:48:01.922,111948,14545,17891,94093,119195
2025-04-16 16:48:01.931,111980,14562,17903,94167,119266
2025-04-16 16:48:01.938,112045,14572,17917,94254,119364
2025-04-16 16:48:01.951,112062,14574,17909,94325,119410
2025-04-16 16:48:01.959,112027,14563,17903,94351,119407
2025-04-16 16:48:01.986,111996,14553,17903,94315,119373
2025-04-16 16:48:01.987,112023,14544,17914,94285,119328
2025-04-16 16:48:01.991,112161,14558,17945,94220,119292
2025-04-16 16:48:02.003,112359,14581,17987,94218,119346
2025-04-16 16:48:02.010,112594,14609,18030,94242,119453
2025-04-16 16:48:02.023,112838,14650,18078,94300,119580
2025-04-16 16:48:02.030,113057,14693,18127,94328,119670
2025-04-16 16:48:02.049,112996,14721,18188,94378,119782
2025-04-16 16:48:02.051,113070,14757,18242,94400,119842
2025-04-16 16:48:02.063,113250,14782,18276,94342,119814
2025-04-16 16:48:02.070,113408,14826,18322,94296,119790
2025-04-16 16:48:02.083,113530,14838,18338,94241,119741
2025-04-16 16:48:02.091,113601,14838,18335,94063,119576
2025-04-16 16:48:02.113,113605,14844,18275,93914,119418
2025-04-16 16:48:02.114,113628,14855,18270,93953,119438
2025-04-16 16:48:02.123,113634,14876,18275,93969,119425
2025-04-16 16:48:02.131,113646,14889,18277,93978,119475
2025-04-16 16:48:02.143,113690,14886,18282,93928,119400
2025-04-16 16:48:02.150,113726,14903,18285,93866,119341
2025-04-16 16:48:02.177,113805,14926,18303,93878,119375
2025-04-16 16:48:02.178,113865,14940,18317,93906,119398
2025-04-16 16:48:02.182,113922,14950,18314,93931,119438
2025-04-16 16:48:02.191,113955,14953,18309,93907,119406
2025-04-16 16:48:02.203,113986,14957,18302,93872,119340
2025-04-16 16:48:02.211,114004,14956,18293,93836,119290
2025-04-16 16:48:02.223,113992,14948,18270,93789,119266
2025-04-16 16:48:02.240,113998,14931,18250,93728,119157
2025-04-16 16:48:02.243,114016,14901,18218,93637,119051
2025-04-16 16:48:02.255,113994,14874,18193,93504,118905
2025-04-16 16:48:02.263,113954,14845,18156,93398,118774
2025-04-16 16:48:02.274,113828,14796,18097,93279,118633
2025-04-16 16:48:02.283,113707,14739,18027,93099,118412
2025-04-16 16:48:02.303,113538,14686,17967,92861,118152
2025-04-16 16:48:02.304,113353,14647,17914,92667,117912
2025-04-16 16:48:02.314,113232,14664,17919,92558,117776
2025-04-16 16:48:02.323,113189,14677,17927,92632,117871
2025-04-16 16:48:02.335,113182,14692,17942,92665,117897
2025-04-16 16:48:02.342,113204,14701,17954,92664,117874
2025-04-16 16:48:02.367,113233,14719,17976,92634,117820
2025-04-16 16:48:02.368,113267,14722,17992,92597,117768
2025-04-16 16:48:02.374,113320,14730,18004,92544,117710
2025-04-16 16:48:02.383,113352,14739,18014,92506,117669
2025-04-16 16:48:02.395,113398,14758,18034,92490,117666
2025-04-16 16:48:02.402,113474,14795,18075,92539,117703
2025-04-16 16:48:02.415,113545,14832,18116,92677,117869
2025-04-16 16:48:02.431,113593,14860,18130,92776,117997
2025-04-16 16:48:02.435,113604,14880,18154,92829,118045
2025-04-16 16:48:02.443,113659,14917,18187,92891,118140
2025-04-16 16:48:02.455,113740,14949,18209,93015,118316
2025-04-16 16:48:02.463,113885,14969,18227,93102,118395
2025-04-16 16:48:02.475,114036,14985,18244,93123,118442
2025-04-16 16:48:02.493,114159,15008,18258,93202,118557
2025-04-16 16:48:02.495,114178,15035,18268,93376,118761
2025-04-16 16:48:02.507,114192,15058,18282,93613,119060
2025-04-16 16:48:02.515,114275,15072,18291,93800,119278
2025-04-16 16:48:02.527,114409,15095,18313,93876,119410
2025-04-16 16:48:02.535,114605,15108,18335,93950,119499
2025-04-16 16:48:02.557,114737,15132,18354,94040,119623
2025-04-16 16:48:02.559,114801,15148,18361,94174,119789
2025-04-16 16:48:02.567,114846,15172,18376,94280,119949
2025-04-16 16:48:02.574,114915,15193,18399,94409,120094
2025-04-16 16:48:02.587,115029,15224,18433,94530,120259
2025-04-16 16:48:02.594,115154,15259,18464,94649,120406
2025-04-16 16:48:02.621,115297,15293,18500,94782,120570
2025-04-16 16:48:02.622,115411,15317,18520,94883,120692
2025-04-16 16:48:02.626,115464,15331,18535,94980,120808
2025-04-16 16:48:02.635,115456,15342,18534,95060,120917
2025-04-16 16:48:02.646,115445,15340,18536,95108,120965
2025-04-16 16:48:02.655,115445,15330,18519,95072,120882
2025-04-16 16:48:02.666,115419,15307,18510,94958,120761
2025-04-16 16:48:02.685,115363,15287,18484,94856,120651
2025-04-16 16:48:02.687,115312,15268,18463,94767,120528
2025-04-16 16:48:02.695,115267,15262,18450,94742,120493
2025-04-16 16:48:02.707,115220,15262,18453,94743,120495
2025-04-16 16:48:02.714,115211,15271,18456,94766,120516
2025-04-16 16:48:02.727,115245,15292,18468,94813,120554
2025-04-16 16:48:02.750,115314,15321,18495,94901,120661
2025-04-16 16:48:02.752,115357,15342,18516,95011,120775
2025-04-16 16:48:02.760,115386,15364,18534,95124,120906
2025-04-16 16:48:02.767,115432,15378,18547,95193,120974
2025-04-16 16:48:02.779,115486,15373,18545,95198,120980
2025-04-16 16:48:02.786,115466,15360,18530,95169,120904
2025-04-16 16:48:02.799,115444,15352,18515,95069,120825
2025-04-16 16:48:02.815,115395,15333,18503,95005,120711
2025-04-16 16:48:02.819,115328,15323,18490,94904,120633
2025-04-16 16:48:02.826,115292,15310,18473,94864,120575
2025-04-16 16:48:02.838,115264,15293,18459,94818,120515
2025-04-16 16:48:02.847,115272,15280,18440,94730,120446
2025-04-16 16:48:02.858,115292,15277,18437,94651,120359
2025-04-16 16:48:02.863,115292,15277,18437,94651,120359
2025-04-16 16:48:02.877,115358,15295,18461,94666,120414
2025-04-16 16:48:02.879,115462,15327,18497,94680,120422
2025-04-16 16:48:02.886,115610,15361,18540,94705,120449
2025-04-16 16:48:02.899,115744,15393,18579,94719,120470
2025-04-16 16:48:02.906,115883,15395,18598,94692,120420
2025-04-16 16:48:02.919,115981,15382,18589,94580,120315
2025-04-16 16:48:02.942,116080,15363,18578,94430,120127
2025-04-16 16:48:02.944,116158,15318,18542,94193,119878
2025-04-16 16:48:02.946,116188,15250,18481,93867,119495
2025-04-16 16:48:02.959,116165,15191,18417,93530,119122
2025-04-16 16:48:02.966,116085,15119,18350,93215,118769
2025-04-16 16:48:02.979,115999,15071,18292,92920,118431
2025-04-16 16:48:02.986,115914,15020,18244,92655,118154
2025-04-16 16:48:03.006,115872,14983,18208,92459,117907
2025-04-16 16:48:03.011,115817,14968,18191,92307,117725
2025-04-16 16:48:03.018,115770,14967,18187,92229,117653
2025-04-16 16:48:03.030,115727,14975,18191,92244,117657
2025-04-16 16:48:03.038,115704,14981,18194,92287,117705
2025-04-16 16:48:03.050,115702,14986,18202,92317,117728
2025-04-16 16:48:03.071,115696,14988,18202,92366,117773
2025-04-16 16:48:03.072,115692,14988,18203,92401,117817
2025-04-16 16:48:03.078,115663,14991,18191,92422,117809
2025-04-16 16:48:03.090,115591,14982,18180,92422,117815
2025-04-16 16:48:03.099,115541,14971,18166,92420,117794
2025-04-16 16:48:03.111,115464,14958,18143,92413,117789
2025-04-16 16:48:03.118,115376,14950,18123,92411,117760
2025-04-16 16:48:03.133,115288,14936,18107,92413,117780
2025-04-16 16:48:03.138,115286,14957,18132,92474,117836
2025-04-16 16:48:03.150,115348,15003,18172,92679,118062
2025-04-16 16:48:03.158,115391,15023,18185,92897,118306
2025-04-16 16:48:03.170,115384,15018,18177,93038,118434
2025-04-16 16:48:03.178,115339,15004,18148,93055,118448
2025-04-16 16:48:03.196,115275,14982,18123,93034,118420
2025-04-16 16:48:03.198,115225,14958,18100,93005,118386
2025-04-16 16:48:03.210,115232,14945,18086,92973,118308
2025-04-16 16:48:03.218,115262,14939,18071,92929,118291
2025-04-16 16:48:03.231,115303,14927,18064,92890,118237
2025-04-16 16:48:03.242,115315,14930,18065,92867,118208
2025-04-16 16:48:03.260,115306,14939,18068,92895,118238
2025-04-16 16:48:03.263,115328,14949,18072,92931,118284
2025-04-16 16:48:03.270,115369,14956,18088,92979,118330
2025-04-16 16:48:03.283,115411,14964,18092,93012,118343
2025-04-16 16:48:03.290,115443,14977,18101,93071,118404
2025-04-16 16:48:03.303,115460,14980,18104,93120,118454
2025-04-16 16:48:03.323,115476,14983,18114,93148,118468
2025-04-16 16:48:03.325,115479,14986,18109,93159,118488
2025-04-16 16:48:03.331,115476,14992,18109,93185,118505
2025-04-16 16:48:03.342,115495,14988,18106,93217,118511
2025-04-16 16:48:03.350,115495,14992,18105,93242,118549
2025-04-16 16:48:03.362,115489,14992,18103,93251,118565
2025-04-16 16:48:03.370,115482,14983,18094,93278,118575
2025-04-16 16:48:03.388,115436,14976,18084,93286,118586
2025-04-16 16:48:03.406,115348,14965,18062,93297,118587
2025-04-16 16:48:03.408,115251,14947,18039,93283,118580
2025-04-16 16:48:03.410,115141,14929,18010,93255,118543
2025-04-16 16:48:03.423,115030,14909,17986,93253,118521
2025-04-16 16:48:03.430,114926,14895,17963,93258,118508
2025-04-16 16:48:03.452,114829,14889,17945,93275,118532
2025-04-16 16:48:03.454,114731,14876,17926,93307,118561
2025-04-16 16:48:03.463,114623,14876,17915,93360,118604
2025-04-16 16:48:03.474,114518,14865,17892,93441,118691
2025-04-16 16:48:03.482,114408,14857,17879,93509,118760
2025-04-16 16:48:03.494,114311,14849,17859,93534,118777
2025-04-16 16:48:03.517,114192,14830,17844,93561,118781
2025-04-16 16:48:03.518,114093,14816,17822,93591,118794
2025-04-16 16:48:03.521,113989,14804,17807,93614,118798
2025-04-16 16:48:03.534,113919,14791,17788,93625,118818
2025-04-16 16:48:03.542,113843,14781,17769,93639,118816
2025-04-16 16:48:03.555,113721,14761,17744,93616,118770
2025-04-16 16:48:03.562,113603,14739,17718,93551,118661
2025-04-16 16:48:03.580,113506,14728,17701,93457,118564
2025-04-16 16:48:03.582,113379,14722,17691,93412,118488
2025-04-16 16:48:03.594,113302,14726,17692,93393,118448
2025-04-16 16:48:03.602,113249,14737,17694,93427,118461
2025-04-16 16:48:03.614,113237,14749,17705,93464,118488
2025-04-16 16:48:03.622,113252,14759,17718,93502,118522
2025-04-16 16:48:03.643,113270,14771,17729,93561,118555
2025-04-16 16:48:03.645,113269,14779,17741,93596,118601
2025-04-16 16:48:03.654,113292,14795,17757,93639,118610
2025-04-16 16:48:03.666,113332,14807,17775,93658,118656
2025-04-16 16:48:03.667,113332,14807,17775,93658,118656
2025-04-16 16:48:03.675,113426,14834,17805,93737,118715
2025-04-16 16:48:03.682,113483,14848,17822,93785,118750
2025-04-16 16:48:03.707,113527,14863,17830,93824,118796
2025-04-16 16:48:03.708,113574,14871,17846,93884,118855
2025-04-16 16:48:03.714,113606,14884,17857,93943,118912
2025-04-16 16:48:03.726,113617,14895,17864,94012,118981
2025-04-16 16:48:03.735,113628,14904,17877,94086,119055
2025-04-16 16:48:03.746,113633,14917,17885,94156,119121
2025-04-16 16:48:03.754,113610,14928,17891,94231,119226
2025-04-16 16:48:03.772,113594,14928,17892,94320,119311
2025-04-16 16:48:03.775,113566,14931,17901,94383,119380
2025-04-16 16:48:03.786,113549,14933,17902,94448,119414
2025-04-16 16:48:03.794,113534,14943,17911,94497,119466
2025-04-16 16:48:03.806,113531,14949,17919,94546,119520
2025-04-16 16:48:03.815,113549,14950,17930,94569,119541
2025-04-16 16:48:03.837,113583,14961,17937,94574,119541
2025-04-16 16:48:03.838,113621,14977,17953,94584,119566
2025-04-16 16:48:03.846,113671,14995,17972,94651,119641
2025-04-16 16:48:03.853,113687,15007,17977,94719,119726
2025-04-16 16:48:03.867,113699,15011,17984,94792,119801
2025-04-16 16:48:03.874,113705,15013,17982,94834,119835
2025-04-16 16:48:03.885,113714,15015,17985,94858,119861
2025-04-16 16:48:03.900,113723,15016,17990,94882,119880
2025-04-16 16:48:03.907,113725,15021,17990,94902,119902
2025-04-16 16:48:03.914,113733,15029,17992,94939,119956
2025-04-16 16:48:03.926,113757,15029,17994,94972,119985
2025-04-16 16:48:03.934,113744,15025,17990,94951,119964
2025-04-16 16:48:03.946,113749,15019,17989,94969,119965
2025-04-16 16:48:03.964,113729,15026,17985,94943,119933
2025-04-16 16:48:03.966,113704,15022,17983,94927,119947
2025-04-16 16:48:03.974,113706,15029,17991,94951,119957
2025-04-16 16:48:03.985,113741,15041,18008,94954,119970
2025-04-16 16:48:03.994,113783,15062,18023,94986,120002
2025-04-16 16:48:04.006,113829,15076,18045,95028,120052
2025-04-16 16:48:04.028,113879,15096,18057,95070,120117
2025-04-16 16:48:04.030,113939,15112,18071,95095,120147
2025-04-16 16:48:04.034,114023,15126,18092,95126,120176
2025-04-16 16:48:04.046,114086,15142,18103,95139,120192
2025-04-16 16:48:04.057,114151,15148,18107,95158,120211
2025-04-16 16:48:04.066,114166,15144,18106,95168,120226
2025-04-16 16:48:04.091,114177,15140,18103,95158,120206
2025-04-16 16:48:04.093,114175,15134,18093,95133,120181
2025-04-16 16:48:04.098,114178,15128,18082,95110,120151
2025-04-16 16:48:04.106,114174,15119,18074,95095,120124
2025-04-16 16:48:04.118,114178,15116,18066,95090,120129
2025-04-16 16:48:04.126,114185,15114,18060,95077,120129
2025-04-16 16:48:04.138,114186,15109,18053,95083,120105
2025-04-16 16:48:04.154,114122,15105,18043,95102,120127
2025-04-16 16:48:04.158,114069,15085,18028,95102,120148
2025-04-16 16:48:04.166,114044,15066,18011,95045,120078
2025-04-16 16:48:04.178,114024,15053,17995,94963,119983
2025-04-16 16:48:04.187,114089,15072,18012,94941,119964
2025-04-16 16:48:04.198,114193,15116,18050,95070,120133
2025-04-16 16:48:04.220,114345,15153,18085,95308,120418
2025-04-16 16:48:04.222,114494,15170,18113,95444,120581
2025-04-16 16:48:04.226,114634,15179,18139,95453,120589
2025-04-16 16:48:04.238,114739,15183,18145,95397,120531
2025-04-16 16:48:04.247,114772,15184,18150,95341,120468
2025-04-16 16:48:04.258,114783,15185,18152,95309,120437
2025-04-16 16:48:04.267,114794,15183,18153,95272,120411
2025-04-16 16:48:04.284,114837,15178,18156,95229,120361
2025-04-16 16:48:04.286,114895,15170,18162,95130,120246
2025-04-16 16:48:04.299,114943,15160,18154,95005,120114
2025-04-16 16:48:04.306,114972,15144,18147,94896,120017
2025-04-16 16:48:04.318,114966,15130,18135,94787,119928
2025-04-16 16:48:04.326,114958,15118,18121,94704,119836
2025-04-16 16:48:04.349,114962,15110,18109,94640,119796
2025-04-16 16:48:04.350,114963,15098,18099,94597,119765
2025-04-16 16:48:04.358,114975,15089,18086,94571,119738
2025-04-16 16:48:04.370,114979,15082,18072,94545,119720
2025-04-16 16:48:04.377,114995,15070,18055,94521,119708
2025-04-16 16:48:04.390,114978,15050,18030,94496,119689
2025-04-16 16:48:04.398,114930,15034,18012,94474,119680
2025-04-16 16:48:04.413,114899,15017,17981,94463,119677
2025-04-16 16:48:04.418,114880,15001,17963,94413,119633
2025-04-16 16:48:04.430,114877,14989,17950,94391,119620
2025-04-16 16:48:04.437,114891,14990,17947,94401,119649
2025-04-16 16:48:04.449,114923,14986,17939,94431,119704
2025-04-16 16:48:04.458,114961,14975,17940,94432,119705
2025-04-16 16:48:04.476,114989,14976,17933,94402,119666
2025-04-16 16:48:04.477,114989,14976,17933,94402,119666
2025-04-16 16:48:04.479,115008,14967,17916,94407,119713
2025-04-16 16:48:04.490,115004,14956,17907,94418,119700
2025-04-16 16:48:04.497,115000,14944,17898,94382,119679
2025-04-16 16:48:04.510,114959,14929,17877,94349,119610
2025-04-16 16:48:04.517,114913,14909,17858,94302,119572
2025-04-16 16:48:04.541,114844,14890,17840,94248,119534
2025-04-16 16:48:04.543,114796,14874,17820,94197,119448
2025-04-16 16:48:04.550,114719,14857,17802,94133,119398
2025-04-16 16:48:04.558,114635,14843,17784,94101,119348
2025-04-16 16:48:04.570,114547,14829,17771,94052,119283
2025-04-16 16:48:04.577,114445,14827,17767,94031,119253
2025-04-16 16:48:04.589,114388,14831,17770,94058,119277
2025-04-16 16:48:04.604,114369,14844,17780,94103,119323
2025-04-16 16:48:04.610,114390,14857,17790,94140,119397
2025-04-16 16:48:04.618,114411,14874,17804,94183,119439
2025-04-16 16:48:04.630,114442,14884,17817,94231,119488
2025-04-16 16:48:04.638,114527,14904,17846,94281,119543
2025-04-16 16:48:04.650,114729,14952,17896,94383,119673
2025-04-16 16:48:04.668,114983,15005,17955,94545,119892
2025-04-16 16:48:04.670,115234,15043,18009,94696,120066
2025-04-16 16:48:04.682,115450,15072,18044,94784,120155
2025-04-16 16:48:04.690,115591,15091,18069,94803,120205
2025-04-16 16:48:04.702,115699,15106,18092,94814,120231
2025-04-16 16:48:04.710,115826,15123,18117,94781,120199
2025-04-16 16:48:04.732,115940,15128,18132,94726,120142
2025-04-16 16:48:04.733,115994,15123,18137,94654,120067
2025-04-16 16:48:04.741,116010,15118,18127,94566,119963
2025-04-16 16:48:04.750,115960,15103,18116,94482,119884
2025-04-16 16:48:04.762,115915,15086,18094,94403,119804
2025-04-16 16:48:04.769,115866,15067,18075,94331,119715
2025-04-16 16:48:04.796,115828,15057,18054,94251,119631
2025-04-16 16:48:04.797,115791,15043,18041,94178,119548
2025-04-16 16:48:04.802,115745,15032,18023,94095,119475
2025-04-16 16:48:04.810,115706,15022,18007,94046,119434
2025-04-16 16:48:04.821,115669,15015,17999,94000,119395
2025-04-16 16:48:04.830,115638,15006,17986,93972,119379
2025-04-16 16:48:04.841,115603,14989,17966,93939,119350
2025-04-16 16:48:04.859,115561,14968,17942,93877,119308
2025-04-16 16:48:04.862,115505,14953,17924,93827,119265
2025-04-16 16:48:04.870,115471,14940,17906,93786,119218
2025-04-16 16:48:04.882,115435,14930,17887,93761,119210
2025-04-16 16:48:04.890,115383,14917,17874,93735,119194
2025-04-16 16:48:04.902,115345,14904,17857,93704,119181
2025-04-16 16:48:04.922,115277,14890,17838,93671,119153
2025-04-16 16:48:04.924,115229,14880,17826,93651,119135
2025-04-16 16:48:04.934,115161,14867,17809,93624,119090
2025-04-16 16:48:04.941,115124,14845,17779,93593,119060
2025-04-16 16:48:04.954,115048,14821,17752,93525,118997
2025-04-16 16:48:04.962,114954,14784,17714,93439,118937
2025-04-16 16:48:04.989,114851,14746,17673,93314,118799
2025-04-16 16:48:04.990,114751,14717,17655,93199,118664
2025-04-16 16:48:04.994,114693,14727,17657,93150,118629
2025-04-16 16:48:05.001,114697,14737,17662,93202,118670
2025-04-16 16:48:05.014,114722,14757,17675,93275,118765
2025-04-16 16:48:05.022,114778,14774,17697,93364,118878
2025-04-16 16:48:05.034,114828,14785,17707,93490,119035
2025-04-16 16:48:05.052,114907,14803,17721,93589,119151
2025-04-16 16:48:05.054,114987,14814,17735,93676,119261
2025-04-16 16:48:05.062,115054,14820,17745,93710,119342
2025-04-16 16:48:05.074,115068,14816,17743,93725,119354
2025-04-16 16:48:05.082,115077,14817,17739,93736,119374
2025-04-16 16:48:05.094,115050,14808,17735,93747,119411
2025-04-16 16:48:05.101,115028,14797,17720,93745,119416
2025-04-16 16:48:05.116,115023,14792,17721,93734,119414
2025-04-16 16:48:05.122,115053,14798,17723,93744,119443
2025-04-16 16:48:05.134,115121,14805,17742,93774,119480
2025-04-16 16:48:05.141,115181,14817,17759,93858,119600
2025-04-16 16:48:05.153,115251,14826,17773,93975,119729
2025-04-16 16:48:05.161,115374,14854,17794,94101,119858
2025-04-16 16:48:05.179,115503,14872,17818,94209,119975
2025-04-16 16:48:05.181,115634,14894,17835,94296,120097
2025-04-16 16:48:05.194,115714,14914,17852,94376,120180
2025-04-16 16:48:05.206,115767,14931,17876,94458,120280
2025-04-16 16:48:05.213,115788,14941,17882,94518,120334
2025-04-16 16:48:05.226,115805,14950,17886,94531,120359
2025-04-16 16:48:05.243,115833,14957,17893,94548,120378
2025-04-16 16:48:05.246,115842,14962,17893,94550,120386
2025-04-16 16:48:05.253,115829,14957,17890,94572,120409
2025-04-16 16:48:05.265,115796,14965,17884,94599,120455
2025-04-16 16:48:05.274,115820,14966,17884,94645,120510
2025-04-16 16:48:05.286,115832,14964,17880,94680,120561
2025-04-16 16:48:05.306,115834,14958,17874,94688,120578
2025-04-16 16:48:05.308,115832,14957,17861,94699,120581
2025-04-16 16:48:05.315,115832,14943,17849,94688,120575
2025-04-16 16:48:05.325,115835,14939,17830,94684,120572
2025-04-16 16:48:05.334,115830,14923,17819,94654,120536
2025-04-16 16:48:05.346,115830,14913,17806,94620,120506
2025-04-16 16:48:05.354,115832,14908,17792,94586,120469
2025-04-16 16:48:05.369,115837,14896,17788,94580,120444
2025-04-16 16:48:05.374,115841,14896,17784,94550,120420
2025-04-16 16:48:05.386,115849,14896,17780,94531,120382
2025-04-16 16:48:05.394,115866,14894,17783,94529,120385
2025-04-16 16:48:05.405,115864,14894,17774,94520,120379
2025-04-16 16:48:05.414,115854,14888,17769,94517,120363
2025-04-16 16:48:05.433,115835,14882,17763,94504,120350
2025-04-16 16:48:05.435,115813,14874,17752,94474,120332
2025-04-16 16:48:05.445,115773,14871,17740,94461,120294
2025-04-16 16:48:05.453,115710,14864,17733,94450,120276
2025-04-16 16:48:05.466,115666,14856,17726,94427,120253
2025-04-16 16:48:05.477,115632,14858,17721,94425,120246
2025-04-16 16:48:05.481,115632,14858,17721,94425,120246
2025-04-16 16:48:05.496,115601,14863,17725,94431,120242
2025-04-16 16:48:05.497,115595,14872,17730,94430,120260
2025-04-16 16:48:05.506,115577,14874,17736,94446,120259
2025-04-16 16:48:05.517,115556,14876,17734,94454,120281
2025-04-16 16:48:05.526,115545,14880,17735,94473,120285
2025-04-16 16:48:05.538,115480,14876,17731,94504,120313
2025-04-16 16:48:05.545,115444,14886,17731,94537,120347
2025-04-16 16:48:05.561,115386,14879,17728,94567,120379
2025-04-16 16:48:05.566,115331,14882,17724,94613,120435
2025-04-16 16:48:05.578,115276,14887,17722,94683,120496
2025-04-16 16:48:05.585,115211,14885,17713,94744,120551
2025-04-16 16:48:05.597,115153,14887,17713,94800,120615
2025-04-16 16:48:05.606,115055,14887,17701,94862,120694
2025-04-16 16:48:05.624,114979,14879,17687,94954,120770
2025-04-16 16:48:05.625,114902,14872,17681,94973,120776
2025-04-16 16:48:05.637,114819,14861,17670,94966,120749
2025-04-16 16:48:05.645,114717,14852,17668,94964,120733
2025-04-16 16:48:05.658,114620,14849,17663,95004,120747
2025-04-16 16:48:05.665,114567,14861,17670,95055,120801
2025-04-16 16:48:05.688,114551,14860,17669,95131,120866
2025-04-16 16:48:05.689,114560,14859,17677,95173,120903
2025-04-16 16:48:05.697,114623,14860,17709,95178,120914
2025-04-16 16:48:05.709,114607,14854,17704,95071,120854
2025-04-16 16:48:05.718,114594,14846,17694,95068,120863
2025-04-16 16:48:05.729,114560,14835,17685,95072,120860
2025-04-16 16:48:05.736,114515,14817,17671,95080,120854
2025-04-16 16:48:05.752,114440,14809,17656,95060,120858
2025-04-16 16:48:05.757,114370,14794,17647,95053,120800
2025-04-16 16:48:05.769,114286,14781,17627,95014,120754
2025-04-16 16:48:05.777,114191,14767,17618,94976,120667
2025-04-16 16:48:05.789,114089,14755,17607,94922,120617
2025-04-16 16:48:05.798,113987,14744,17595,94883,120546
2025-04-16 16:48:05.815,113919,14733,17582,94844,120476
2025-04-16 16:48:05.818,113854,14724,17574,94782,120413
2025-04-16 16:48:05.829,113798,14715,17571,94753,120363
2025-04-16 16:48:05.837,113734,14707,17559,94757,120362
2025-04-16 16:48:05.850,113660,14693,17541,94732,120327
2025-04-16 16:48:05.857,113583,14680,17525,94682,120277
2025-04-16 16:48:05.880,113483,14668,17519,94644,120212
2025-04-16 16:48:05.881,113395,14664,17514,94639,120194
2025-04-16 16:48:05.889,113391,14669,17526,94664,120196
2025-04-16 16:48:05.897,113398,14684,17538,94693,120241
2025-04-16 16:48:05.909,113462,14710,17566,94754,120300
2025-04-16 16:48:05.918,113540,14727,17589,94831,120401
2025-04-16 16:48:05.944,113602,14750,17608,94884,120466
2025-04-16 16:48:05.946,113642,14762,17621,94935,120537
2025-04-16 16:48:05.948,113672,14765,17624,94956,120573
2025-04-16 16:48:05.961,113691,14766,17624,94972,120595
2025-04-16 16:48:05.969,113719,14763,17626,94956,120592
2025-04-16 16:48:05.981,113740,14759,17626,94955,120578
2025-04-16 16:48:05.989,113742,14751,17622,94917,120544
2025-04-16 16:48:06.007,113745,14741,17608,94881,120513
2025-04-16 16:48:06.009,113721,14734,17598,94849,120483
2025-04-16 16:48:06.021,113686,14716,17588,94806,120420
2025-04-16 16:48:06.029,113671,14702,17576,94735,120361
2025-04-16 16:48:06.040,113642,14693,17567,94705,120323
2025-04-16 16:48:06.050,113625,14690,17567,94686,120309
2025-04-16 16:48:06.070,113637,14686,17563,94680,120308
2025-04-16 16:48:06.071,113636,14690,17565,94684,120303
2025-04-16 16:48:06.081,113638,14687,17556,94680,120325
2025-04-16 16:48:06.089,113635,14682,17552,94672,120333
2025-04-16 16:48:06.101,113607,14672,17540,94639,120282
2025-04-16 16:48:06.108,113545,14653,17528,94595,120217
2025-04-16 16:48:06.135,113473,14635,17511,94512,120131
2025-04-16 16:48:06.136,113402,14609,17482,94429,120020
2025-04-16 16:48:06.141,113311,14592,17462,94292,119887
2025-04-16 16:48:06.150,113192,14571,17443,94197,119753
2025-04-16 16:48:06.161,113105,14556,17425,94114,119648
2025-04-16 16:48:06.169,112996,14547,17416,94045,119531
2025-04-16 16:48:06.181,112943,14544,17407,93977,119493
2025-04-16 16:48:06.199,112869,14544,17411,93985,119444
2025-04-16 16:48:06.202,112818,14551,17408,94010,119477
2025-04-16 16:48:06.213,112781,14553,17409,94008,119479
2025-04-16 16:48:06.221,112733,14558,17418,94023,119504
2025-04-16 16:48:06.234,112691,14561,17417,94062,119500
2025-04-16 16:48:06.241,112656,14567,17417,94069,119522
2025-04-16 16:48:06.262,112630,14568,17423,94076,119517
2025-04-16 16:48:06.264,112622,14575,17429,94091,119524
2025-04-16 16:48:06.273,112605,14584,17432,94110,119547
2025-04-16 16:48:06.281,112595,14591,17439,94150,119550
2025-04-16 16:48:06.284,112595,14591,17439,94150,119550
2025-04-16 16:48:06.294,112573,14604,17450,94214,119646
2025-04-16 16:48:06.301,112566,14602,17457,94247,119671
2025-04-16 16:48:06.327,112565,14606,17455,94284,119690
2025-04-16 16:48:06.328,112567,14613,17459,94300,119736
2025-04-16 16:48:06.333,112553,14612,17453,94338,119779
2025-04-16 16:48:06.342,112547,14609,17454,94376,119786
2025-04-16 16:48:06.354,112532,14605,17447,94384,119800
2025-04-16 16:48:06.361,112511,14596,17438,94406,119825
2025-04-16 16:48:06.373,112465,14588,17425,94397,119823
2025-04-16 16:48:06.390,112423,14575,17414,94404,119811
2025-04-16 16:48:06.393,112388,14559,17401,94381,119798
2025-04-16 16:48:06.400,112355,14549,17390,94361,119753
2025-04-16 16:48:06.413,112313,14540,17375,94332,119730
2025-04-16 16:48:06.421,112272,14525,17371,94319,119717
2025-04-16 16:48:06.433,112240,14517,17361,94300,119699
2025-04-16 16:48:06.455,112227,14510,17347,94296,119695
2025-04-16 16:48:06.456,112206,14508,17346,94281,119653
2025-04-16 16:48:06.462,112203,14507,17347,94267,119671
2025-04-16 16:48:06.473,112209,14507,17346,94279,119681
2025-04-16 16:48:06.486,112238,14514,17345,94290,119711
2025-04-16 16:48:06.493,112253,14513,17352,94314,119720
2025-04-16 16:48:06.519,112275,14514,17349,94335,119745
2025-04-16 16:48:06.520,112291,14517,17355,94342,119764
2025-04-16 16:48:06.525,112319,14516,17360,94336,119757
2025-04-16 16:48:06.533,112344,14523,17364,94353,119770
2025-04-16 16:48:06.545,112362,14536,17376,94382,119814
2025-04-16 16:48:06.553,112388,14539,17383,94431,119864
2025-04-16 16:48:06.565,112473,14546,17408,94419,119870
2025-04-16 16:48:06.582,112475,14550,17413,94431,119908
2025-04-16 16:48:06.585,112475,14555,17413,94443,119910
2025-04-16 16:48:06.593,112445,14548,17406,94468,119935
2025-04-16 16:48:06.605,112436,14537,17399,94463,119940
2025-04-16 16:48:06.613,112412,14524,17389,94437,119894
2025-04-16 16:48:06.625,112379,14511,17380,94375,119836
2025-04-16 16:48:06.645,112362,14506,17373,94346,119797
2025-04-16 16:48:06.647,112365,14505,17369,94356,119798
2025-04-16 16:48:06.654,112366,14496,17366,94358,119793
2025-04-16 16:48:06.665,112348,14493,17361,94357,119796
2025-04-16 16:48:06.673,112308,14487,17353,94361,119791
2025-04-16 16:48:06.685,112254,14475,17343,94333,119777
2025-04-16 16:48:06.692,112187,14463,17331,94323,119729
2025-04-16 16:48:06.710,112136,14451,17324,94286,119694
2025-04-16 16:48:06.713,112107,14449,17318,94255,119662
2025-04-16 16:48:06.725,112079,14445,17317,94253,119655
2025-04-16 16:48:06.733,112070,14444,17315,94259,119644
2025-04-16 16:48:06.744,112062,14446,17312,94250,119660
2025-04-16 16:48:06.753,112029,14442,17315,94234,119655
2025-04-16 16:48:06.774,112021,14441,17306,94234,119644
2025-04-16 16:48:06.777,111998,14441,17306,94244,119623
2025-04-16 16:48:06.785,111962,14436,17303,94216,119611
2025-04-16 16:48:06.797,111944,14428,17296,94194,119594
2025-04-16 16:48:06.804,111908,14420,17287,94171,119561
2025-04-16 16:48:06.817,111854,14412,17282,94116,119494
2025-04-16 16:48:06.839,111814,14405,17277,94056,119412
2025-04-16 16:48:06.840,111781,14403,17270,93999,119359
2025-04-16 16:48:06.845,111751,14394,17276,93980,119339
2025-04-16 16:48:06.857,111710,14398,17268,93954,119321
2025-04-16 16:48:06.865,111668,14392,17263,93931,119292
2025-04-16 16:48:06.877,111638,14388,17260,93906,119259
2025-04-16 16:48:06.885,111647,14389,17265,93864,119223
2025-04-16 16:48:06.902,111689,14402,17276,93861,119260
2025-04-16 16:48:06.904,111744,14426,17295,93915,119315
2025-04-16 16:48:06.917,111828,14448,17323,93994,119417
2025-04-16 16:48:06.925,111928,14471,17343,94074,119523
2025-04-16 16:48:06.938,112030,14493,17364,94128,119614
2025-04-16 16:48:06.945,112139,14519,17383,94200,119686
2025-04-16 16:48:06.966,112215,14538,17405,94272,119776
2025-04-16 16:48:06.968,112276,14550,17411,94335,119861
2025-04-16 16:48:06.977,112291,14560,17421,94396,119920
2025-04-16 16:48:06.985,112296,14559,17414,94414,119961
2025-04-16 16:48:06.998,112295,14555,17400,94430,119956
2025-04-16 16:48:07.005,112386,14547,17376,94393,119913
2025-04-16 16:48:07.030,112408,14543,17364,94352,119854
2025-04-16 16:48:07.032,112445,14549,17362,94381,119872
2025-04-16 16:48:07.037,112490,14559,17362,94416,119938
2025-04-16 16:48:07.045,112531,14570,17369,94502,119999
2025-04-16 16:48:07.057,112559,14575,17370,94554,120059
2025-04-16 16:48:07.065,112608,14581,17377,94599,120137
2025-04-16 16:48:07.076,112680,14599,17396,94642,120207
2025-04-16 16:48:07.095,112785,14633,17418,94716,120300
2025-04-16 16:48:07.097,112896,14660,17448,94806,120419
2025-04-16 16:48:07.109,113015,14684,17480,94877,120513
2025-04-16 16:48:07.117,113120,14706,17516,94917,120593
2025-04-16 16:48:07.128,113088,14724,17549,94930,120629
2025-04-16 16:48:07.137,113067,14739,17571,94934,120676
2025-04-16 16:48:07.160,113141,14742,17593,94930,120683
2025-04-16 16:48:07.161,113193,14756,17606,94900,120671
2025-04-16 16:48:07.169,113267,14768,17618,94877,120633
2025-04-16 16:48:07.177,113329,14772,17622,94822,120614
2025-04-16 16:48:07.189,113368,14774,17626,94779,120590
2025-04-16 16:48:07.196,113385,14771,17623,94735,120555
2025-04-16 16:48:07.209,113389,14766,17620,94701,120536
2025-04-16 16:48:07.225,113368,14759,17608,94677,120505
2025-04-16 16:48:07.228,113350,14741,17592,94642,120459
2025-04-16 16:48:07.237,113322,14724,17578,94589,120402
2025-04-16 16:48:07.248,113273,14701,17556,94524,120351
2025-04-16 16:48:07.256,113233,14685,17541,94470,120281
2025-04-16 16:48:07.269,113173,14659,17513,94391,120198
2025-04-16 16:48:07.292,113093,14627,17477,94306,120083
2025-04-16 16:48:07.294,112998,14589,17442,94196,119979
2025-04-16 16:48:07.295,112998,14589,17442,94196,119979
2025-04-16 16:48:07.297,112793,14511,17363,93974,119699
2025-04-16 16:48:07.309,112666,14476,17328,93858,119592
2025-04-16 16:48:07.321,112561,14432,17287,93758,119450
2025-04-16 16:48:07.329,112421,14395,17250,93671,119336
2025-04-16 16:48:07.341,112279,14361,17210,93553,119203
2025-04-16 16:48:07.357,112148,14323,17178,93437,119065
2025-04-16 16:48:07.361,112017,14296,17149,93355,118977
2025-04-16 16:48:07.369,111897,14278,17129,93297,118881
2025-04-16 16:48:07.380,111808,14264,17112,93253,118835
2025-04-16 16:48:07.388,111729,14261,17108,93241,118793
2025-04-16 16:48:07.401,111677,14255,17098,93228,118787
2025-04-16 16:48:07.420,111631,14258,17100,93231,118768
2025-04-16 16:48:07.422,111602,14270,17106,93243,118785
2025-04-16 16:48:07.429,111604,14273,17114,93272,118812
2025-04-16 16:48:07.440,111644,14282,17130,93286,118824
2025-04-16 16:48:07.449,111676,14299,17144,93317,118867
2025-04-16 16:48:07.460,111714,14321,17166,93357,118916
2025-04-16 16:48:07.469,111760,14338,17185,93415,118984
2025-04-16 16:48:07.484,111855,14366,17211,93492,119097
2025-04-16 16:48:07.489,112022,14399,17233,93604,119208
2025-04-16 16:48:07.501,112173,14419,17258,93696,119338
2025-04-16 16:48:07.509,112286,14442,17274,93798,119447
2025-04-16 16:48:07.521,112401,14468,17298,93866,119541
2025-04-16 16:48:07.529,112467,14478,17315,93931,119630
2025-04-16 16:48:07.548,112509,14489,17323,93970,119688
