Timestamp,PPG1,PPG2,PPG3,PPG4,PPG5
2025-04-16 16:56:15.594,99370,13323,16639,91180,113816
2025-04-16 16:56:15.627,99373,13325,16648,91184,113826
2025-04-16 16:56:15.628,99388,13336,16652,91191,113858
2025-04-16 16:56:15.629,99407,13333,16654,91206,113870
2025-04-16 16:56:15.630,99425,13340,16657,91199,113884
2025-04-16 16:56:15.631,99432,13342,16661,91230,113915
2025-04-16 16:56:15.632,99434,13347,16673,91246,113931
2025-04-16 16:56:15.633,99452,13356,16678,91273,113960
2025-04-16 16:56:15.635,99454,13364,16691,91284,113991
2025-04-16 16:56:15.636,99461,13358,16686,91291,114010
2025-04-16 16:56:15.638,99453,13352,16682,91223,113958
2025-04-16 16:56:15.639,99436,13363,16689,91236,113970
2025-04-16 16:56:15.640,99415,13357,16692,91277,114005
2025-04-16 16:56:15.641,99403,13349,16678,91244,113993
2025-04-16 16:56:15.644,99398,13334,16665,91176,113901
2025-04-16 16:56:15.657,99377,13326,16663,91115,113846
2025-04-16 16:56:15.664,99359,13324,16663,91132,113854
2025-04-16 16:56:15.974,99369,13316,16659,91133,113878
2025-04-16 16:56:15.975,99352,13306,16645,91080,113810
2025-04-16 16:56:15.977,99337,13288,16630,91023,113759
2025-04-16 16:56:15.978,99305,13281,16626,90977,113710
2025-04-16 16:56:15.979,99285,13277,16620,90987,113721
2025-04-16 16:56:15.981,99268,13263,16607,90961,113678
2025-04-16 16:56:15.983,99266,13245,16590,90906,113631
2025-04-16 16:56:15.984,99249,13228,16577,90864,113576
2025-04-16 16:56:15.986,99241,13223,16568,90851,113575
2025-04-16 16:56:15.987,99263,13218,16571,90848,113569
2025-04-16 16:56:15.988,99281,13210,16561,90862,113577
2025-04-16 16:56:15.989,99290,13206,16556,90847,113598
2025-04-16 16:56:15.990,99307,13198,16554,90817,113583
2025-04-16 16:56:15.992,99301,13204,16547,90828,113580
2025-04-16 16:56:15.993,99286,13196,16546,90821,113609
2025-04-16 16:56:15.995,99294,13189,16545,90818,113573
2025-04-16 16:56:15.996,99303,13187,16539,90774,113551
2025-04-16 16:56:15.998,99286,13189,16535,90779,113552
2025-04-16 16:56:15.999,99286,13182,16541,90782,113564
2025-04-16 16:56:16.000,99292,13186,16541,90782,113578
2025-04-16 16:56:16.001,99318,13180,16538,90777,113592
2025-04-16 16:56:16.003,99347,13181,16546,90778,113604
2025-04-16 16:56:16.005,99353,13189,16555,90797,113636
2025-04-16 16:56:16.006,99401,13190,16559,90806,113666
2025-04-16 16:56:16.007,99426,13191,16565,90817,113690
2025-04-16 16:56:16.008,99453,13189,16567,90824,113694
2025-04-16 16:56:16.009,99466,13188,16567,90799,113677
2025-04-16 16:56:16.010,99485,13188,16570,90804,113691
2025-04-16 16:56:16.011,99506,13187,16575,90810,113690
2025-04-16 16:56:16.012,99524,13182,16580,90814,113722
2025-04-16 16:56:16.014,99558,13186,16581,90807,113716
2025-04-16 16:56:16.015,99585,13187,16591,90814,113735
2025-04-16 16:56:16.016,99614,13189,16597,90820,113763
2025-04-16 16:56:16.017,99657,13190,16605,90841,113784
2025-04-16 16:56:16.018,99683,13193,16605,90848,113812
2025-04-16 16:56:16.034,99694,13186,16611,90840,113797
2025-04-16 16:56:16.036,99714,13183,16614,90815,113793
2025-04-16 16:56:16.048,99734,13188,16620,90803,113772
2025-04-16 16:56:16.056,99752,13184,16620,90780,113753
2025-04-16 16:56:16.068,99774,13184,16622,90754,113731
2025-04-16 16:56:16.076,99821,13185,16635,90746,113740
2025-04-16 16:56:16.097,99850,13186,16637,90735,113738
2025-04-16 16:56:16.098,99879,13186,16653,90739,113754
2025-04-16 16:56:16.108,99922,13190,16661,90741,113751
2025-04-16 16:56:16.116,99961,13188,16668,90731,113779
2025-04-16 16:56:16.128,100001,13189,16672,90724,113764
2025-04-16 16:56:16.136,100038,13192,16685,90699,113761
2025-04-16 16:56:16.160,100085,13193,16693,90702,113758
2025-04-16 16:56:16.161,100122,13188,16694,90692,113749
2025-04-16 16:56:16.167,100155,13187,16696,90659,113724
2025-04-16 16:56:16.180,100188,13188,16702,90631,113707
2025-04-16 16:56:16.188,100236,13193,16714,90628,113720
2025-04-16 16:56:16.200,100266,13197,16723,90616,113721
2025-04-16 16:56:16.208,100314,13206,16726,90628,113733
2025-04-16 16:56:16.222,100378,13209,16741,90636,113737
2025-04-16 16:56:16.228,100404,13221,16751,90607,113748
2025-04-16 16:56:16.239,100469,13222,16765,90605,113734
2025-04-16 16:56:16.243,100469,13222,16765,90605,113734
2025-04-16 16:56:16.248,100535,13230,16778,90546,113692
2025-04-16 16:56:16.259,100572,13232,16789,90529,113674
2025-04-16 16:56:16.268,100598,13243,16803,90500,113642
2025-04-16 16:56:16.284,100640,13265,16823,90496,113637
2025-04-16 16:56:16.288,100692,13278,16846,90515,113673
2025-04-16 16:56:16.299,100731,13298,16863,90541,113705
2025-04-16 16:56:16.308,100792,13322,16888,90556,113738
2025-04-16 16:56:16.320,100828,13345,16916,90594,113794
2025-04-16 16:56:16.328,100882,13361,16938,90632,113849
2025-04-16 16:56:16.347,100919,13387,16966,90675,113880
2025-04-16 16:56:16.348,100980,13407,16991,90703,113930
2025-04-16 16:56:16.360,101074,13428,17020,90753,113985
2025-04-16 16:56:16.368,101147,13455,17041,90806,114063
2025-04-16 16:56:16.380,101160,13461,17048,90847,114096
2025-04-16 16:56:16.388,101197,13470,17062,90817,114080
2025-04-16 16:56:16.410,101238,13484,17078,90839,114088
2025-04-16 16:56:16.412,101296,13497,17098,90895,114129
2025-04-16 16:56:16.419,101325,13509,17104,90914,114156
2025-04-16 16:56:16.432,101344,13516,17115,90908,114178
2025-04-16 16:56:16.440,101356,13529,17123,90925,114196
2025-04-16 16:56:16.451,101370,13533,17124,90930,114187
2025-04-16 16:56:16.459,101372,13550,17142,90940,114202
2025-04-16 16:56:16.473,101383,13565,17154,90979,114256
2025-04-16 16:56:16.480,101394,13575,17171,91014,114280
2025-04-16 16:56:16.492,101418,13599,17187,91024,114320
2025-04-16 16:56:16.500,101426,13617,17209,91077,114367
2025-04-16 16:56:16.511,101448,13629,17226,91131,114422
2025-04-16 16:56:16.520,101457,13642,17242,91177,114472
2025-04-16 16:56:16.536,101458,13644,17244,91205,114495
2025-04-16 16:56:16.540,101431,13641,17248,91186,114496
2025-04-16 16:56:16.551,101423,13639,17248,91180,114477
2025-04-16 16:56:16.560,101435,13640,17250,91172,114457
2025-04-16 16:56:16.571,101447,13638,17251,91176,114480
2025-04-16 16:56:16.579,101448,13639,17252,91173,114466
2025-04-16 16:56:16.598,101462,13643,17256,91182,114477
2025-04-16 16:56:16.600,101460,13633,17259,91178,114483
2025-04-16 16:56:16.611,101455,13635,17261,91181,114488
2025-04-16 16:56:16.624,101448,13634,17258,91166,114475
2025-04-16 16:56:16.631,101443,13623,17261,91151,114441
2025-04-16 16:56:16.644,101422,13617,17252,91103,114388
2025-04-16 16:56:16.660,101428,13605,17249,91054,114333
2025-04-16 16:56:16.664,101443,13594,17245,91020,114306
2025-04-16 16:56:16.672,101467,13590,17239,90989,114279
2025-04-16 16:56:16.684,101512,13582,17241,90974,114259
2025-04-16 16:56:16.691,101555,13587,17249,90972,114267
2025-04-16 16:56:16.704,101609,13587,17254,90991,114289
2025-04-16 16:56:16.723,101645,13596,17259,91003,114308
2025-04-16 16:56:16.724,101682,13597,17267,91000,114305
2025-04-16 16:56:16.731,101710,13600,17272,91007,114331
2025-04-16 16:56:16.744,101728,13606,17281,90990,114322
2025-04-16 16:56:16.752,101737,13604,17277,90981,114312
2025-04-16 16:56:16.763,101736,13597,17276,90962,114288
2025-04-16 16:56:16.771,101732,13591,17274,90909,114263
2025-04-16 16:56:16.785,101722,13589,17271,90867,114209
2025-04-16 16:56:16.793,101710,13585,17271,90808,114158
2025-04-16 16:56:16.804,101713,13579,17272,90768,114123
2025-04-16 16:56:16.812,101721,13582,17272,90748,114106
2025-04-16 16:56:16.823,101725,13582,17267,90729,114100
2025-04-16 16:56:16.830,101731,13582,17269,90725,114111
2025-04-16 16:56:16.848,101742,13579,17267,90719,114101
2025-04-16 16:56:16.852,101738,13589,17265,90703,114103
2025-04-16 16:56:16.863,101734,13580,17259,90684,114094
2025-04-16 16:56:16.871,101747,13580,17259,90671,114087
2025-04-16 16:56:16.884,101767,13583,17260,90683,114119
2025-04-16 16:56:16.895,101804,13585,17262,90706,114151
2025-04-16 16:56:16.911,101840,13597,17267,90742,114204
2025-04-16 16:56:16.915,101875,13603,17272,90778,114280
2025-04-16 16:56:16.923,101899,13612,17278,90823,114333
2025-04-16 16:56:16.935,101888,13621,17284,90843,114358
2025-04-16 16:56:16.943,101898,13632,17292,90848,114387
2025-04-16 16:56:16.956,101907,13649,17300,90876,114442
2025-04-16 16:56:16.973,101922,13658,17313,90895,114473
2025-04-16 16:56:16.976,101936,13663,17322,90934,114501
2025-04-16 16:56:16.984,101954,13685,17331,90959,114531
2025-04-16 16:56:16.995,101979,13687,17345,90982,114589
2025-04-16 16:56:17.004,102000,13700,17358,91013,114602
2025-04-16 16:56:17.015,102036,13709,17373,91032,114659
2025-04-16 16:56:17.036,102063,13725,17380,91076,114710
2025-04-16 16:56:17.037,102111,13729,17396,91117,114743
2025-04-16 16:56:17.048,102159,13748,17414,91162,114799
2025-04-16 16:56:17.049,102159,13748,17414,91162,114799
2025-04-16 16:56:17.055,102248,13783,17447,91249,114915
2025-04-16 16:56:17.063,102309,13801,17466,91289,114963
2025-04-16 16:56:17.075,102365,13820,17490,91341,115005
2025-04-16 16:56:17.083,102446,13845,17514,91387,115055
2025-04-16 16:56:17.098,102510,13862,17543,91462,115142
2025-04-16 16:56:17.104,102567,13891,17569,91514,115232
2025-04-16 16:56:17.115,102623,13918,17596,91579,115300
2025-04-16 16:56:17.128,102690,13946,17628,91639,115366
2025-04-16 16:56:17.135,102732,13975,17656,91716,115441
2025-04-16 16:56:17.147,102749,13999,17682,91763,115505
2025-04-16 16:56:17.161,102745,14012,17701,91771,115508
2025-04-16 16:56:17.167,102735,14026,17716,91765,115475
2025-04-16 16:56:17.175,102723,14038,17740,91746,115471
2025-04-16 16:56:17.187,102732,14066,17757,91766,115489
2025-04-16 16:56:17.195,102735,14074,17776,91788,115494
2025-04-16 16:56:17.207,102768,14103,17801,91801,115527
2025-04-16 16:56:17.223,102789,14125,17830,91851,115597
2025-04-16 16:56:17.227,102817,14145,17849,91908,115663
2025-04-16 16:56:17.236,102825,14167,17862,91982,115746
2025-04-16 16:56:17.248,102854,14181,17878,92037,115813
2025-04-16 16:56:17.256,102892,14207,17895,92132,115928
2025-04-16 16:56:17.267,102992,14227,17915,92244,116076
2025-04-16 16:56:17.286,103114,14268,17939,92390,116252
2025-04-16 16:56:17.287,103258,14299,17969,92575,116497
2025-04-16 16:56:17.295,103444,14324,17990,92744,116722
2025-04-16 16:56:17.307,103645,14333,18010,92906,116944
2025-04-16 16:56:17.316,103758,14345,18020,93011,117075
2025-04-16 16:56:17.327,103810,14351,18021,93051,117166
2025-04-16 16:56:17.334,103800,14337,18016,93081,117215
2025-04-16 16:56:17.349,103774,14333,18012,93064,117188
2025-04-16 16:56:17.360,103726,14318,18001,93040,117156
2025-04-16 16:56:17.366,103712,14314,17989,93027,117128
2025-04-16 16:56:17.379,103695,14313,17990,93041,117143
2025-04-16 16:56:17.387,103716,14310,17989,93056,117178
2025-04-16 16:56:17.411,103734,14309,17989,93082,117201
2025-04-16 16:56:17.412,103745,14300,17978,93078,117225
2025-04-16 16:56:17.419,103754,14297,17976,93052,117233
2025-04-16 16:56:17.427,103774,14299,17972,93043,117258
2025-04-16 16:56:17.439,103789,14293,17972,93039,117272
2025-04-16 16:56:17.446,103797,14287,17970,93009,117280
2025-04-16 16:56:17.459,103797,14281,17965,92989,117274
2025-04-16 16:56:17.474,103806,14283,17962,92976,117276
2025-04-16 16:56:17.478,103803,14279,17962,92979,117300
2025-04-16 16:56:17.488,103827,14275,17957,92971,117303
2025-04-16 16:56:17.500,103813,14281,17967,92958,117306
2025-04-16 16:56:17.507,103808,14288,17971,92979,117328
2025-04-16 16:56:17.519,103821,14294,17977,93009,117363
2025-04-16 16:56:17.536,103819,14298,17978,93033,117377
2025-04-16 16:56:17.539,103805,14301,17985,93050,117412
2025-04-16 16:56:17.547,103799,14302,17987,93043,117393
2025-04-16 16:56:17.559,103790,14302,17988,93042,117399
2025-04-16 16:56:17.567,103756,14303,17986,93041,117392
2025-04-16 16:56:17.579,103733,14296,17985,93022,117375
2025-04-16 16:56:17.599,103727,14300,17984,93006,117349
2025-04-16 16:56:17.600,103718,14295,17983,93010,117369
2025-04-16 16:56:17.610,103712,14294,17984,93016,117347
2025-04-16 16:56:17.619,103707,14292,17981,93010,117343
2025-04-16 16:56:17.631,103697,14292,17981,93005,117347
2025-04-16 16:56:17.639,103671,14290,17976,93011,117341
2025-04-16 16:56:17.662,103659,14287,17975,92987,117321
2025-04-16 16:56:17.663,103637,14283,17975,92976,117293
2025-04-16 16:56:17.671,103619,14277,17967,92944,117260
2025-04-16 16:56:17.679,103602,14270,17959,92924,117229
2025-04-16 16:56:17.691,103568,14266,17958,92878,117198
2025-04-16 16:56:17.699,103549,14266,17951,92870,117163
2025-04-16 16:56:17.710,103544,14260,17947,92831,117125
2025-04-16 16:56:17.725,103528,14256,17953,92835,117135
2025-04-16 16:56:17.732,103520,14259,17944,92837,117131
2025-04-16 16:56:17.739,103504,14255,17951,92840,117129
2025-04-16 16:56:17.750,103492,14252,17947,92844,117123
2025-04-16 16:56:17.759,103478,14246,17939,92814,117095
2025-04-16 16:56:17.770,103470,14243,17939,92813,117084
2025-04-16 16:56:17.786,103453,14242,17932,92790,117073
2025-04-16 16:56:17.790,103440,14236,17931,92789,117046
2025-04-16 16:56:17.800,103429,14237,17927,92776,117012
2025-04-16 16:56:17.811,103418,14235,17928,92779,117018
2025-04-16 16:56:17.823,103407,14233,17926,92776,117034
2025-04-16 16:56:17.830,103407,14237,17927,92771,117024
2025-04-16 16:56:17.849,103396,14227,17925,92756,116999
2025-04-16 16:56:17.851,103373,14222,17920,92715,116972
2025-04-16 16:56:17.863,103366,14217,17915,92688,116938
2025-04-16 16:56:17.870,103339,14212,17913,92658,116906
2025-04-16 16:56:17.883,103328,14210,17908,92633,116870
2025-04-16 16:56:17.891,103324,14206,17906,92596,116842
2025-04-16 16:56:17.911,103309,14203,17900,92579,116811
2025-04-16 16:56:17.913,103292,14194,17894,92553,116771
2025-04-16 16:56:17.922,103279,14188,17887,92519,116744
2025-04-16 16:56:17.931,103273,14184,17887,92493,116701
2025-04-16 16:56:17.943,103259,14175,17877,92444,116667
2025-04-16 16:56:17.951,103247,14170,17871,92409,116622
2025-04-16 16:56:17.973,103247,14161,17866,92395,116587
2025-04-16 16:56:17.974,103224,14159,17857,92350,116564
2025-04-16 16:56:17.983,103220,14149,17854,92328,116532
2025-04-16 16:56:17.990,103212,14141,17848,92293,116493
2025-04-16 16:56:18.003,103201,14138,17841,92256,116445
2025-04-16 16:56:18.010,103214,14130,17836,92214,116411
2025-04-16 16:56:18.036,103219,14116,17823,92183,116358
2025-04-16 16:56:18.037,103212,14108,17816,92143,116321
2025-04-16 16:56:18.043,103217,14102,17807,92124,116283
2025-04-16 16:56:18.055,103226,14087,17798,92104,116259
2025-04-16 16:56:18.058,103226,14087,17798,92104,116259
2025-04-16 16:56:18.063,103213,14066,17774,92048,116193
2025-04-16 16:56:18.075,103215,14050,17764,91998,116127
2025-04-16 16:56:18.082,103205,14039,17753,91950,116091
2025-04-16 16:56:18.098,103200,14029,17741,91925,116051
2025-04-16 16:56:18.103,103193,14023,17736,91914,116035
2025-04-16 16:56:18.115,103197,14017,17734,91916,116027
2025-04-16 16:56:18.122,103181,14001,17722,91902,116026
2025-04-16 16:56:18.135,103176,13993,17715,91882,115976
2025-04-16 16:56:18.142,103163,13985,17702,91855,115933
2025-04-16 16:56:18.161,103151,13975,17688,91826,115901
2025-04-16 16:56:18.163,103148,13957,17682,91797,115855
2025-04-16 16:56:18.175,103130,13942,17657,91768,115834
2025-04-16 16:56:18.183,103102,13916,17626,91776,115825
2025-04-16 16:56:18.194,103079,13888,17599,91818,115814
2025-04-16 16:56:18.202,103067,13870,17573,91889,115841
2025-04-16 16:56:18.223,103053,13858,17554,91937,115862
2025-04-16 16:56:18.224,103039,13846,17544,91990,115883
2025-04-16 16:56:18.234,103039,13836,17542,92058,115922
2025-04-16 16:56:18.242,103038,13838,17539,92100,115947
2025-04-16 16:56:18.255,103035,13823,17532,92145,115976
2025-04-16 16:56:18.262,103011,13821,17530,92171,115984
2025-04-16 16:56:18.286,102981,13815,17533,92179,115979
2025-04-16 16:56:18.287,102953,13811,17526,92147,115945
2025-04-16 16:56:18.294,102914,13804,17528,92113,115884
2025-04-16 16:56:18.306,102883,13805,17525,92082,115854
2025-04-16 16:56:18.314,102851,13801,17528,92053,115814
2025-04-16 16:56:18.327,102823,13804,17527,92016,115783
2025-04-16 16:56:18.335,102781,13806,17530,91972,115757
2025-04-16 16:56:18.349,102781,13806,17530,91972,115757
2025-04-16 16:56:18.354,102759,13804,17528,91941,115714
2025-04-16 16:56:18.366,102726,13794,17527,91892,115676
2025-04-16 16:56:18.374,102682,13795,17520,91838,115611
2025-04-16 16:56:18.387,102639,13787,17520,91794,115556
2025-04-16 16:56:18.395,102614,13788,17518,91758,115516
2025-04-16 16:56:18.411,102593,13784,17518,91713,115475
2025-04-16 16:56:18.414,102561,13785,17515,91696,115440
2025-04-16 16:56:18.426,102541,13780,17513,91670,115407
2025-04-16 16:56:18.434,102510,13782,17508,91627,115368
2025-04-16 16:56:18.447,102488,13777,17505,91597,115341
2025-04-16 16:56:18.458,102456,13769,17502,91561,115292
2025-04-16 16:56:18.473,102456,13769,17502,91561,115292
2025-04-16 16:56:18.474,102456,13769,17502,91561,115292
2025-04-16 16:56:18.475,102378,13774,17500,91524,115241
2025-04-16 16:56:18.476,102365,13775,17501,91506,115221
2025-04-16 16:56:18.487,102346,13770,17501,91501,115218
2025-04-16 16:56:18.499,102310,13776,17499,91480,115189
2025-04-16 16:56:18.506,102319,13777,17505,91462,115162
2025-04-16 16:56:18.518,102293,13781,17503,91445,115160
2025-04-16 16:56:18.535,102293,13780,17503,91436,115151
2025-04-16 16:56:18.539,102278,13782,17506,91437,115174
2025-04-16 16:56:18.546,102272,13789,17508,91429,115165
2025-04-16 16:56:18.558,102267,13788,17512,91429,115147
2025-04-16 16:56:18.567,102240,13792,17514,91431,115136
2025-04-16 16:56:18.578,102242,13786,17515,91406,115124
2025-04-16 16:56:18.597,102218,13791,17511,91400,115109
2025-04-16 16:56:18.599,102213,13789,17515,91385,115091
2025-04-16 16:56:18.606,102209,13791,17514,91374,115108
2025-04-16 16:56:18.618,102199,13793,17514,91368,115088
2025-04-16 16:56:18.626,102178,13791,17517,91362,115076
2025-04-16 16:56:18.637,102165,13792,17511,91350,115054
2025-04-16 16:56:18.646,102142,13784,17505,91330,115029
2025-04-16 16:56:18.661,102114,13776,17504,91315,115020
2025-04-16 16:56:18.666,102097,13777,17499,91295,114993
2025-04-16 16:56:18.679,102074,13777,17504,91276,114973
2025-04-16 16:56:18.686,102067,13772,17502,91268,114955
2025-04-16 16:56:18.698,102056,13776,17502,91259,114957
2025-04-16 16:56:18.706,102050,13773,17503,91268,114959
2025-04-16 16:56:18.723,102029,13772,17500,91255,114951
2025-04-16 16:56:18.727,102031,13772,17495,91255,114945
2025-04-16 16:56:18.739,102015,13771,17491,91251,114930
2025-04-16 16:56:18.746,101975,13766,17485,91237,114907
2025-04-16 16:56:18.758,101957,13761,17485,91223,114889
2025-04-16 16:56:18.765,101933,13754,17482,91226,114884
2025-04-16 16:56:18.786,101918,13758,17477,91205,114862
2025-04-16 16:56:18.787,101896,13756,17470,91202,114855
2025-04-16 16:56:18.797,101885,13751,17467,91194,114836
2025-04-16 16:56:18.807,101865,13745,17462,91189,114820
2025-04-16 16:56:18.818,101868,13742,17456,91193,114840
2025-04-16 16:56:18.826,101854,13736,17454,91189,114841
2025-04-16 16:56:18.849,101860,13738,17452,91191,114844
2025-04-16 16:56:18.851,101846,13732,17447,91205,114846
2025-04-16 16:56:18.858,101833,13732,17446,91204,114825
2025-04-16 16:56:18.870,101833,13735,17446,91196,114836
2025-04-16 16:56:18.878,101844,13739,17448,91199,114855
2025-04-16 16:56:18.890,101853,13748,17455,91219,114864
2025-04-16 16:56:18.898,101856,13747,17462,91221,114885
2025-04-16 16:56:18.912,101884,13758,17466,91232,114905
2025-04-16 16:56:18.919,101901,13758,17468,91256,114924
2025-04-16 16:56:18.929,101931,13770,17471,91266,114931
2025-04-16 16:56:18.938,101939,13772,17475,91283,114968
2025-04-16 16:56:18.950,101956,13771,17481,91305,114974
2025-04-16 16:56:18.958,101965,13768,17477,91309,114994
2025-04-16 16:56:18.975,101950,13768,17478,91307,114980
2025-04-16 16:56:18.978,101950,13769,17478,91287,114983
2025-04-16 16:56:18.990,101942,13768,17479,91282,114971
2025-04-16 16:56:18.998,101929,13770,17478,91277,114956
2025-04-16 16:56:19.010,101918,13772,17475,91257,114941
2025-04-16 16:56:19.019,101897,13765,17473,91253,114930
2025-04-16 16:56:19.037,101883,13764,17469,91247,114922
2025-04-16 16:56:19.039,101852,13757,17467,91213,114882
2025-04-16 16:56:19.051,101831,13757,17464,91203,114887
2025-04-16 16:56:19.061,101820,13756,17465,91197,114862
2025-04-16 16:56:19.063,101820,13756,17465,91197,114862
2025-04-16 16:56:19.070,101788,13753,17461,91177,114857
2025-04-16 16:56:19.078,101758,13755,17460,91169,114843
2025-04-16 16:56:19.099,101757,13755,17460,91166,114847
2025-04-16 16:56:19.102,101735,13756,17460,91168,114831
2025-04-16 16:56:19.109,101732,13756,17464,91159,114838
2025-04-16 16:56:19.122,101718,13752,17462,91175,114832
2025-04-16 16:56:19.130,101700,13754,17458,91168,114818
2025-04-16 16:56:19.143,101682,13754,17458,91159,114831
2025-04-16 16:56:19.162,101666,13746,17449,91164,114823
2025-04-16 16:56:19.163,101661,13740,17449,91154,114822
2025-04-16 16:56:19.170,101630,13728,17438,91144,114782
2025-04-16 16:56:19.182,101607,13718,17430,91099,114748
2025-04-16 16:56:19.189,101578,13705,17417,91058,114702
2025-04-16 16:56:19.202,101566,13694,17408,91024,114647
2025-04-16 16:56:19.209,101571,13687,17401,91004,114644
2025-04-16 16:56:19.225,101564,13684,17395,91005,114635
2025-04-16 16:56:19.230,101543,13678,17391,90996,114621
2025-04-16 16:56:19.242,101520,13675,17386,91001,114626
2025-04-16 16:56:19.250,101518,13675,17384,90994,114608
2025-04-16 16:56:19.262,101513,13667,17387,90992,114633
2025-04-16 16:56:19.270,101495,13672,17384,90998,114625
2025-04-16 16:56:19.287,101502,13674,17380,91009,114635
2025-04-16 16:56:19.289,101491,13670,17382,91005,114623
2025-04-16 16:56:19.302,101496,13669,17379,91014,114625
2025-04-16 16:56:19.310,101495,13664,17375,91017,114626
2025-04-16 16:56:19.323,101482,13668,17371,91009,114616
2025-04-16 16:56:19.330,101488,13661,17372,91011,114608
2025-04-16 16:56:19.349,101486,13664,17374,91003,114601
2025-04-16 16:56:19.351,101483,13666,17373,91005,114598
2025-04-16 16:56:19.362,101487,13668,17371,91024,114628
2025-04-16 16:56:19.374,101486,13675,17374,91042,114647
2025-04-16 16:56:19.381,101489,13676,17370,91065,114687
2025-04-16 16:56:19.394,101500,13670,17370,91087,114706
2025-04-16 16:56:19.412,101483,13675,17370,91093,114699
2025-04-16 16:56:19.413,101484,13673,17367,91093,114697
2025-04-16 16:56:19.421,101470,13675,17371,91092,114687
2025-04-16 16:56:19.434,101449,13675,17367,91093,114682
2025-04-16 16:56:19.442,101435,13669,17363,91090,114676
2025-04-16 16:56:19.453,101430,13668,17362,91084,114668
2025-04-16 16:56:19.474,101422,13663,17352,91081,114646
2025-04-16 16:56:19.475,101420,13660,17347,91074,114640
2025-04-16 16:56:19.482,101405,13649,17343,91062,114630
2025-04-16 16:56:19.494,101389,13652,17340,91069,114621
2025-04-16 16:56:19.502,101391,13648,17335,91072,114633
2025-04-16 16:56:19.514,101395,13641,17333,91077,114637
2025-04-16 16:56:19.521,101414,13641,17326,91075,114642
2025-04-16 16:56:19.536,101429,13637,17323,91090,114668
2025-04-16 16:56:19.541,101438,13633,17322,91106,114689
2025-04-16 16:56:19.553,101442,13631,17319,91126,114720
2025-04-16 16:56:19.561,101436,13626,17302,91137,114716
2025-04-16 16:56:19.574,101429,13614,17289,91127,114702
2025-04-16 16:56:19.582,101394,13602,17281,91100,114686
2025-04-16 16:56:19.599,101395,13582,17263,91065,114656
2025-04-16 16:56:19.606,101378,13572,17254,91048,114614
2025-04-16 16:56:19.614,101376,13564,17239,91027,114586
2025-04-16 16:56:19.626,101375,13555,17229,91011,114582
2025-04-16 16:56:19.634,101369,13542,17224,90997,114557
2025-04-16 16:56:19.645,101359,13540,17219,90975,114520
2025-04-16 16:56:19.660,101344,13530,17213,90963,114520
2025-04-16 16:56:19.666,101328,13522,17202,90941,114495
2025-04-16 16:56:19.674,101309,13517,17195,90925,114482
2025-04-16 16:56:19.686,101297,13511,17188,90898,114461
2025-04-16 16:56:19.693,101273,13503,17181,90885,114426
2025-04-16 16:56:19.706,101252,13502,17177,90865,114412
2025-04-16 16:56:19.723,101240,13502,17176,90835,114402
2025-04-16 16:56:19.726,101230,13496,17170,90835,114383
2025-04-16 16:56:19.734,101208,13498,17172,90814,114368
2025-04-16 16:56:19.745,101212,13494,17170,90806,114368
2025-04-16 16:56:19.753,101179,13490,17167,90799,114380
2025-04-16 16:56:19.765,101153,13486,17161,90776,114342
2025-04-16 16:56:19.786,101115,13477,17148,90730,114304
2025-04-16 16:56:19.787,101099,13472,17143,90695,114252
2025-04-16 16:56:19.794,101087,13468,17141,90669,114233
2025-04-16 16:56:19.805,101085,13465,17141,90646,114203
2025-04-16 16:56:19.814,101087,13464,17144,90658,114227
2025-04-16 16:56:19.825,101086,13466,17136,90652,114230
2025-04-16 16:56:19.851,101077,13459,17130,90650,114222
2025-04-16 16:56:19.853,101071,13452,17126,90629,114195
2025-04-16 16:56:19.857,101049,13445,17117,90605,114162
2025-04-16 16:56:19.866,101031,13438,17111,90582,114133
2025-04-16 16:56:19.869,101031,13438,17111,90582,114133
2025-04-16 16:56:19.878,101026,13430,17104,90548,114104
2025-04-16 16:56:19.885,101010,13432,17100,90544,114096
2025-04-16 16:56:19.898,101011,13432,17099,90538,114107
2025-04-16 16:56:19.918,100992,13436,17099,90544,114100
2025-04-16 16:56:19.920,100976,13441,17103,90528,114087
2025-04-16 16:56:19.926,100973,13446,17105,90532,114087
2025-04-16 16:56:19.937,100968,13456,17116,90539,114108
2025-04-16 16:56:19.946,100981,13464,17128,90549,114113
2025-04-16 16:56:19.957,100970,13478,17132,90568,114135
2025-04-16 16:56:19.966,100965,13487,17143,90589,114159
2025-04-16 16:56:19.981,100953,13494,17148,90606,114180
2025-04-16 16:56:19.986,100967,13505,17159,90632,114205
2025-04-16 16:56:19.997,100968,13517,17170,90664,114233
2025-04-16 16:56:20.006,100991,13525,17181,90713,114278
2025-04-16 16:56:20.018,101013,13541,17193,90757,114315
2025-04-16 16:56:20.025,101038,13550,17214,90817,114380
2025-04-16 16:56:20.043,101073,13572,17226,90885,114424
2025-04-16 16:56:20.046,101108,13589,17249,90954,114497
2025-04-16 16:56:20.057,101163,13610,17268,91036,114612
2025-04-16 16:56:20.070,101194,13632,17291,91109,114663
2025-04-16 16:56:20.077,101255,13644,17302,91206,114777
2025-04-16 16:56:20.089,101415,13664,17326,91303,114884
2025-04-16 16:56:20.105,101633,13688,17345,91447,115058
2025-04-16 16:56:20.110,101833,13705,17368,91619,115282
2025-04-16 16:56:20.117,101977,13727,17392,91713,115423
2025-04-16 16:56:20.129,102099,13744,17410,91815,115582
2025-04-16 16:56:20.138,102181,13747,17419,91862,115643
2025-04-16 16:56:20.149,102248,13765,17431,91837,115662
2025-04-16 16:56:20.168,102338,13786,17453,91923,115793
2025-04-16 16:56:20.169,102397,13800,17473,92004,115868
2025-04-16 16:56:20.178,102460,13821,17495,92013,115915
2025-04-16 16:56:20.189,102468,13837,17512,92042,115973
2025-04-16 16:56:20.197,102476,13843,17512,92061,115991
2025-04-16 16:56:20.209,102478,13850,17529,92083,115980
2025-04-16 16:56:20.231,102480,13863,17530,92159,116074
2025-04-16 16:56:20.232,102483,13869,17532,92219,116097
2025-04-16 16:56:20.237,102477,13873,17539,92258,116124
2025-04-16 16:56:20.249,102474,13875,17542,92313,116136
2025-04-16 16:56:20.257,102464,13879,17547,92366,116179
2025-04-16 16:56:20.270,102451,13886,17540,92396,116189
2025-04-16 16:56:20.277,102437,13884,17540,92466,116215
2025-04-16 16:56:20.293,102440,13884,17547,92504,116213
2025-04-16 16:56:20.297,102460,13897,17551,92541,116240
2025-04-16 16:56:20.309,102472,13905,17561,92612,116275
2025-04-16 16:56:20.321,102487,13913,17567,92687,116311
2025-04-16 16:56:20.329,102493,13911,17569,92741,116357
2025-04-16 16:56:20.342,102478,13908,17568,92780,116359
2025-04-16 16:56:20.355,102460,13911,17563,92790,116369
2025-04-16 16:56:20.362,102431,13903,17561,92792,116329
2025-04-16 16:56:20.369,102369,13898,17557,92770,116283
2025-04-16 16:56:20.381,102318,13891,17551,92727,116221
2025-04-16 16:56:20.390,102264,13887,17538,92670,116157
2025-04-16 16:56:20.401,102191,13872,17528,92618,116079
2025-04-16 16:56:20.418,102131,13865,17521,92577,116027
2025-04-16 16:56:20.421,102035,13852,17505,92495,115940
2025-04-16 16:56:20.429,101959,13843,17499,92391,115828
2025-04-16 16:56:20.441,101893,13824,17482,92291,115717
2025-04-16 16:56:20.450,101841,13825,17471,92184,115620
2025-04-16 16:56:20.461,101808,13810,17468,92115,115552
2025-04-16 16:56:20.481,101821,13816,17467,92069,115501
2025-04-16 16:56:20.482,101850,13824,17469,92076,115515
2025-04-16 16:56:20.489,101886,13841,17481,92128,115563
2025-04-16 16:56:20.500,101954,13856,17499,92222,115648
2025-04-16 16:56:20.509,102057,13879,17510,92325,115758
2025-04-16 16:56:20.521,102148,13891,17526,92459,115878
2025-04-16 16:56:20.528,102257,13913,17536,92596,116005
2025-04-16 16:56:20.543,102375,13923,17537,92761,116163
2025-04-16 16:56:20.550,102478,13936,17539,92992,116358
2025-04-16 16:56:20.561,102606,13942,17535,93286,116607
2025-04-16 16:56:20.573,102742,13944,17533,93640,116892
2025-04-16 16:56:20.580,102857,13928,17501,94001,117183
2025-04-16 16:56:20.606,102938,13881,17443,94360,117423
2025-04-16 16:56:20.607,103015,13822,17378,94769,117681
2025-04-16 16:56:20.613,103091,13756,17331,95218,117920
2025-04-16 16:56:20.622,103168,13735,17331,95572,118095
2025-04-16 16:56:20.634,103220,13713,17335,95920,118302
2025-04-16 16:56:20.641,103317,13717,17366,96109,118359
2025-04-16 16:56:20.652,103447,13723,17392,96365,118543
2025-04-16 16:56:20.669,103495,13715,17417,96543,118648
2025-04-16 16:56:20.673,103497,13716,17433,96656,118698
2025-04-16 16:56:20.682,103421,13717,17457,96753,118690
2025-04-16 16:56:20.693,103286,13708,17459,96771,118687
2025-04-16 16:56:20.701,103121,13688,17464,96774,118587
2025-04-16 16:56:20.713,102928,13682,17465,96745,118505
2025-04-16 16:56:20.731,102712,13661,17466,96709,118408
2025-04-16 16:56:20.732,102462,13640,17470,96620,118242
2025-04-16 16:56:20.741,102162,13638,17475,96533,118108
2025-04-16 16:56:20.753,101815,13634,17483,96505,118032
2025-04-16 16:56:20.761,101513,13607,17464,96462,117971
2025-04-16 16:56:20.773,101251,13600,17439,96427,117910
2025-04-16 16:56:20.794,100957,13610,17413,96450,117918
2025-04-16 16:56:20.795,98531,13602,16970,96310,117653
2025-04-16 16:56:20.802,98206,13623,17003,95280,116483
2025-04-16 16:56:20.813,97779,13649,17058,95130,116403
2025-04-16 16:56:20.825,97284,13663,17127,94994,116338
2025-04-16 16:56:20.832,96845,13673,17188,94906,116293
2025-04-16 16:56:20.856,96503,13690,17242,94808,116253
2025-04-16 16:56:20.857,96406,13704,17274,94688,116185
2025-04-16 16:56:20.865,96428,13710,17296,94577,116106
2025-04-16 16:56:20.873,96564,13708,17317,94565,116101
2025-04-16 16:56:20.877,96564,13708,17317,94565,116101
2025-04-16 16:56:20.885,96925,13713,17349,94751,116273
2025-04-16 16:56:20.893,97080,13717,17382,94893,116375
2025-04-16 16:56:20.905,97160,13748,17422,94969,116465
2025-04-16 16:56:20.920,97139,13769,17464,94943,116499
2025-04-16 16:56:20.925,97103,13787,17510,94798,116449
2025-04-16 16:56:20.934,97113,13803,17552,94608,116379
2025-04-16 16:56:20.946,97179,13834,17598,94512,116383
2025-04-16 16:56:20.953,97248,13843,17617,94481,116441
2025-04-16 16:56:20.964,97390,13844,17640,94513,116507
2025-04-16 16:56:20.982,97844,13867,17612,94585,116610
2025-04-16 16:56:20.985,98017,13899,17620,94588,116623
2025-04-16 16:56:20.993,98266,13943,17613,94618,116657
2025-04-16 16:56:21.004,98629,13995,17667,94586,116638
2025-04-16 16:56:21.013,98714,14043,17743,94708,116782
2025-04-16 16:56:21.025,98696,14086,17802,94770,116882
2025-04-16 16:56:21.044,98718,14128,17865,94863,117015
2025-04-16 16:56:21.045,98703,14147,17902,94904,117111
2025-04-16 16:56:21.053,98786,14137,17889,94903,117136
2025-04-16 16:56:21.065,98844,14121,17863,94948,117204
2025-04-16 16:56:21.077,98801,14106,17848,94990,117225
2025-04-16 16:56:21.085,98751,14111,17847,94971,117199
2025-04-16 16:56:21.093,98664,14125,17863,94964,117208
2025-04-16 16:56:21.107,98631,14140,17890,94993,117221
2025-04-16 16:56:21.113,98672,14158,17907,95085,117253
2025-04-16 16:56:21.125,98749,14156,17915,95165,117261
2025-04-16 16:56:21.137,98809,14163,17925,95220,117272
2025-04-16 16:56:21.145,98849,14170,17934,95253,117241
2025-04-16 16:56:21.169,98871,14183,17945,95257,117224
2025-04-16 16:56:21.171,98876,14196,17971,95292,117240
2025-04-16 16:56:21.177,98883,14191,17983,95293,117228
2025-04-16 16:56:21.184,98922,14191,18014,95274,117185
2025-04-16 16:56:21.197,99260,14205,18159,95286,117265
2025-04-16 16:56:21.205,99256,14234,18183,95478,117522
2025-04-16 16:56:21.217,99210,14259,18210,95497,117565
2025-04-16 16:56:21.231,99160,14285,18230,95489,117561
2025-04-16 16:56:21.237,99112,14303,18257,95439,117586
2025-04-16 16:56:21.245,99060,14319,18274,95371,117525
2025-04-16 16:56:21.257,99033,14325,18280,95301,117474
2025-04-16 16:56:21.265,99047,14314,18272,95248,117412
2025-04-16 16:56:21.276,99091,14312,18267,95162,117350
2025-04-16 16:56:21.293,99203,14327,18278,95121,117333
2025-04-16 16:56:21.297,99335,14334,18275,95200,117405
2025-04-16 16:56:21.304,99446,14333,18276,95212,117420
2025-04-16 16:56:21.317,99504,14342,18281,95178,117428
2025-04-16 16:56:21.325,99560,14361,18290,95086,117356
2025-04-16 16:56:21.337,99559,14371,18290,94962,117271
2025-04-16 16:56:21.356,99572,14377,18283,94795,117149
2025-04-16 16:56:21.357,99037,14372,18105,94585,116993
2025-04-16 16:56:21.364,98773,14374,18036,94063,116411
2025-04-16 16:56:21.377,98784,14369,18026,93880,116234
2025-04-16 16:56:21.385,98716,14365,18023,93705,116096
2025-04-16 16:56:21.396,98259,14355,18060,93564,116032
2025-04-16 16:56:21.405,97718,14343,18097,93448,115991
2025-04-16 16:56:21.419,97677,14348,18085,93307,115908
2025-04-16 16:56:21.424,97680,14366,18082,93107,115774
2025-04-16 16:56:21.436,97661,14372,18080,92952,115701
2025-04-16 16:56:21.448,97703,14397,18098,92867,115664
2025-04-16 16:56:21.457,97752,14435,18136,92865,115706
2025-04-16 16:56:21.481,97851,14502,18200,92868,115764
2025-04-16 16:56:21.482,98001,14603,18308,92946,115965
2025-04-16 16:56:21.488,98295,14756,18469,93040,116195
2025-04-16 16:56:21.497,98624,14805,18534,93146,116439
2025-04-16 16:56:21.509,98991,14839,18583,93112,116452
2025-04-16 16:56:21.516,99331,14877,18632,92935,116316
2025-04-16 16:56:21.529,99602,14920,18689,92597,116065
2025-04-16 16:56:21.544,99826,14978,18745,92444,115973
2025-04-16 16:56:21.548,100059,15027,18787,92530,116067
2025-04-16 16:56:21.557,100288,15065,18824,92645,116173
2025-04-16 16:56:21.568,100636,15106,18840,92734,116276
2025-04-16 16:56:21.576,100991,15134,18846,92699,116247
2025-04-16 16:56:21.589,101211,15158,18851,92652,116189
2025-04-16 16:56:21.606,101475,15177,18839,92593,116156
2025-04-16 16:56:21.609,101769,15195,18833,92537,116097
2025-04-16 16:56:21.617,102021,15205,18831,92471,116035
2025-04-16 16:56:21.628,102105,15217,18828,92389,115988
2025-04-16 16:56:21.637,102172,15219,18842,92363,115993
2025-04-16 16:56:21.648,102223,15230,18866,92318,115974
2025-04-16 16:56:21.668,102242,15229,18867,92286,115962
2025-04-16 16:56:21.669,102237,15231,18862,92277,115988
2025-04-16 16:56:21.676,102186,15227,18870,92267,115990
2025-04-16 16:56:21.688,101857,15207,18901,92232,115973
2025-04-16 16:56:21.697,101413,15175,18926,92216,115975
2025-04-16 16:56:21.708,101165,15151,18919,92153,115933
2025-04-16 16:56:21.716,101189,15131,18903,92024,115800
2025-04-16 16:56:21.730,101228,15119,18865,91859,115643
2025-04-16 16:56:21.741,101221,15103,18829,91714,115501
2025-04-16 16:56:21.749,101215,15088,18797,91575,115352
2025-04-16 16:56:21.761,101214,15072,18761,91434,115215
2025-04-16 16:56:21.768,101207,15061,18740,91306,115077
2025-04-16 16:56:21.793,101215,15052,18727,91181,114962
2025-04-16 16:56:21.794,101232,15037,18710,91034,114849
2025-04-16 16:56:21.801,101246,15037,18702,90910,114729
2025-04-16 16:56:21.809,101268,15035,18693,90816,114652
2025-04-16 16:56:21.820,101282,15040,18685,90767,114612
2025-04-16 16:56:21.828,101289,15045,18684,90772,114625
2025-04-16 16:56:21.841,101309,15051,18685,90825,114689
2025-04-16 16:56:21.856,101324,15064,18679,90878,114745
2025-04-16 16:56:21.861,101337,15061,18674,90919,114777
2025-04-16 16:56:21.869,101323,15063,18663,90954,114806
2025-04-16 16:56:21.880,101322,15060,18657,90976,114814
2025-04-16 16:56:21.885,101322,15060,18657,90976,114814
2025-04-16 16:56:21.888,101320,15057,18655,90948,114793
2025-04-16 16:56:21.900,101305,15063,18651,90925,114771
2025-04-16 16:56:21.918,101293,15071,18648,90927,114790
2025-04-16 16:56:21.921,101285,15071,18645,90951,114815
2025-04-16 16:56:21.928,101272,15074,18641,90964,114830
2025-04-16 16:56:21.940,101259,15076,18640,90975,114843
2025-04-16 16:56:21.948,101255,15079,18636,90975,114859
2025-04-16 16:56:21.960,101234,15082,18628,90981,114873
2025-04-16 16:56:21.980,101216,15085,18621,91001,114881
2025-04-16 16:56:21.982,101200,15084,18616,91029,114912
2025-04-16 16:56:21.992,101191,15087,18611,91055,114950
2025-04-16 16:56:22.000,101171,15087,18607,91057,114945
2025-04-16 16:56:22.012,101148,15083,18603,91054,114969
2025-04-16 16:56:22.020,101147,15086,18595,91053,114965
2025-04-16 16:56:22.043,101138,15085,18590,91053,114966
2025-04-16 16:56:22.044,101110,15076,18576,91056,114970
2025-04-16 16:56:22.053,101115,15078,18569,91047,114966
2025-04-16 16:56:22.060,101096,15078,18561,91044,114974
2025-04-16 16:56:22.072,101087,15072,18556,91025,114964
2025-04-16 16:56:22.080,101086,15068,18545,91011,114948
2025-04-16 16:56:22.092,101064,15069,18536,91002,114945
2025-04-16 16:56:22.106,101042,15067,18532,91018,114961
2025-04-16 16:56:22.112,101023,15061,18525,91060,115003
2025-04-16 16:56:22.120,100991,15063,18518,91094,115034
2025-04-16 16:56:22.132,100970,15062,18516,91138,115065
2025-04-16 16:56:22.141,100962,15061,18515,91163,115107
2025-04-16 16:56:22.152,100997,15055,18527,91181,115122
2025-04-16 16:56:22.168,101033,15046,18532,91164,115123
2025-04-16 16:56:22.172,101062,15042,18529,91148,115124
2025-04-16 16:56:22.181,101073,15036,18522,91154,115124
2025-04-16 16:56:22.192,101086,15025,18514,91130,115160
2025-04-16 16:56:22.200,101076,15015,18499,91145,115152
2025-04-16 16:56:22.212,101055,15010,18482,91148,115170
2025-04-16 16:56:22.231,101021,15001,18467,91167,115188
2025-04-16 16:56:22.233,100997,14991,18449,91181,115201
2025-04-16 16:56:22.241,100973,14983,18432,91188,115227
2025-04-16 16:56:22.252,100940,14978,18418,91215,115226
2025-04-16 16:56:22.260,100924,14968,18410,91228,115238
2025-04-16 16:56:22.273,100913,14961,18395,91244,115264
2025-04-16 16:56:22.293,100901,14950,18387,91221,115254
2025-04-16 16:56:22.295,100896,14948,18376,91214,115249
2025-04-16 16:56:22.304,100911,14941,18371,91222,115240
2025-04-16 16:56:22.312,100902,14936,18361,91197,115251
2025-04-16 16:56:22.324,100894,14932,18357,91187,115242
2025-04-16 16:56:22.346,100889,14924,18344,91187,115253
2025-04-16 16:56:22.361,100877,14923,18336,91183,115244
2025-04-16 16:56:22.362,100855,14918,18325,91186,115242
2025-04-16 16:56:22.365,100842,14914,18311,91171,115249
2025-04-16 16:56:22.372,100835,14906,18307,91170,115241
2025-04-16 16:56:22.384,100824,14902,18303,91155,115235
2025-04-16 16:56:22.393,100828,14894,18291,91132,115218
2025-04-16 16:56:22.404,100822,14891,18286,91121,115221
2025-04-16 16:56:22.423,100807,14890,18274,91101,115192
2025-04-16 16:56:22.424,100792,14879,18269,91083,115181
2025-04-16 16:56:22.432,100789,14878,18262,91063,115181
2025-04-16 16:56:22.444,100783,14873,18255,91054,115177
2025-04-16 16:56:22.453,100770,14865,18248,91040,115158
2025-04-16 16:56:22.464,100763,14861,18236,91013,115131
2025-04-16 16:56:22.472,100753,14860,18224,90990,115112
2025-04-16 16:56:22.486,100740,14847,18219,90963,115109
2025-04-16 16:56:22.492,100733,14846,18210,90957,115085
2025-04-16 16:56:22.504,100728,14842,18203,90937,115071
2025-04-16 16:56:22.513,100714,14842,18195,90923,115061
2025-04-16 16:56:22.524,100722,14836,18190,90904,115052
2025-04-16 16:56:22.532,100726,14828,18190,90902,115041
2025-04-16 16:56:22.548,100755,14828,18182,90872,115038
2025-04-16 16:56:22.552,100775,14825,18174,90824,114999
2025-04-16 16:56:22.564,100776,14824,18163,90788,114954
2025-04-16 16:56:22.572,100773,14821,18146,90748,114917
2025-04-16 16:56:22.584,100770,14810,18124,90712,114883
2025-04-16 16:56:22.596,100758,14805,18108,90681,114830
2025-04-16 16:56:22.610,100753,14801,18090,90653,114816
2025-04-16 16:56:22.616,100747,14800,18076,90639,114801
2025-04-16 16:56:22.624,100756,14793,18063,90622,114789
2025-04-16 16:56:22.636,100762,14793,18055,90603,114760
2025-04-16 16:56:22.643,100785,14792,18048,90603,114768
2025-04-16 16:56:22.656,100807,14790,18046,90588,114745
2025-04-16 16:56:22.675,100819,14795,18043,90567,114727
2025-04-16 16:56:22.677,100840,14793,18044,90538,114724
2025-04-16 16:56:22.689,100839,14793,18039,90523,114712
2025-04-16 16:56:22.690,100839,14793,18039,90523,114712
2025-04-16 16:56:22.696,100854,14784,18034,90474,114667
2025-04-16 16:56:22.704,100852,14785,18023,90450,114656
2025-04-16 16:56:22.715,100851,14782,18019,90438,114643
2025-04-16 16:56:22.724,100852,14783,18012,90428,114623
2025-04-16 16:56:22.742,100846,14780,18006,90420,114631
2025-04-16 16:56:22.745,100841,14775,17997,90404,114626
2025-04-16 16:56:22.756,100854,14772,17996,90397,114618
2025-04-16 16:56:22.764,100862,14767,17993,90386,114602
2025-04-16 16:56:22.776,100865,14763,17987,90370,114579
2025-04-16 16:56:22.785,100889,14761,17980,90350,114555
2025-04-16 16:56:22.801,100892,14754,17972,90300,114518
2025-04-16 16:56:22.804,100900,14745,17957,90272,114495
2025-04-16 16:56:22.815,100877,14734,17944,90233,114466
2025-04-16 16:56:22.828,100860,14725,17929,90213,114448
2025-04-16 16:56:22.836,100860,14715,17915,90194,114420
2025-04-16 16:56:22.847,100857,14707,17901,90193,114431
2025-04-16 16:56:22.864,100883,14699,17888,90206,114413
2025-04-16 16:56:22.868,100897,14686,17871,90223,114424
2025-04-16 16:56:22.876,100927,14680,17860,90252,114452
2025-04-16 16:56:22.888,100948,14677,17849,90284,114484
2025-04-16 16:56:22.896,100964,14667,17834,90306,114489
2025-04-16 16:56:22.908,100976,14665,17823,90346,114534
2025-04-16 16:56:22.926,100989,14658,17811,90371,114564
2025-04-16 16:56:22.928,100987,14654,17804,90398,114584
2025-04-16 16:56:22.936,100987,14649,17793,90432,114605
2025-04-16 16:56:22.947,100990,14643,17784,90427,114608
2025-04-16 16:56:22.956,100986,14635,17772,90439,114606
2025-04-16 16:56:22.967,100990,14630,17760,90428,114620
2025-04-16 16:56:22.975,101000,14619,17749,90423,114586
2025-04-16 16:56:22.989,100983,14612,17737,90417,114583
2025-04-16 16:56:22.996,100988,14609,17731,90431,114589
2025-04-16 16:56:23.008,100984,14605,17723,90442,114594
2025-04-16 16:56:23.017,100976,14605,17719,90456,114601
2025-04-16 16:56:23.028,100981,14592,17710,90451,114602
2025-04-16 16:56:23.036,100970,14587,17706,90439,114587
2025-04-16 16:56:23.052,100960,14585,17697,90420,114571
2025-04-16 16:56:23.060,100965,14579,17687,90401,114555
2025-04-16 16:56:23.067,100944,14570,17673,90394,114525
2025-04-16 16:56:23.079,100936,14568,17665,90377,114532
2025-04-16 16:56:23.087,100929,14560,17658,90384,114521
2025-04-16 16:56:23.100,100931,14555,17649,90364,114513
2025-04-16 16:56:23.115,100930,14553,17646,90365,114488
2025-04-16 16:56:23.119,100926,14549,17632,90350,114491
2025-04-16 16:56:23.128,100891,14547,17627,90350,114485
2025-04-16 16:56:23.139,100896,14542,17620,90346,114483
2025-04-16 16:56:23.148,100879,14538,17615,90347,114478
2025-04-16 16:56:23.160,100871,14531,17611,90320,114461
2025-04-16 16:56:23.176,100866,14534,17599,90309,114426
2025-04-16 16:56:23.179,100848,14524,17595,90292,114407
2025-04-16 16:56:23.188,100854,14520,17587,90280,114411
2025-04-16 16:56:23.200,100827,14516,17581,90272,114381
2025-04-16 16:56:23.208,100814,14513,17577,90284,114367
2025-04-16 16:56:23.220,100799,14508,17566,90276,114380
2025-04-16 16:56:23.239,100804,14503,17560,90266,114380
2025-04-16 16:56:23.240,100785,14500,17557,90253,114371
2025-04-16 16:56:23.247,100777,14493,17545,90240,114350
2025-04-16 16:56:23.259,100771,14490,17535,90244,114334
2025-04-16 16:56:23.268,100759,14486,17535,90230,114314
2025-04-16 16:56:23.280,100760,14485,17531,90212,114318
2025-04-16 16:56:23.301,100730,14483,17523,90227,114302
2025-04-16 16:56:23.302,100735,14478,17516,90208,114293
2025-04-16 16:56:23.312,100710,14477,17512,90199,114288
2025-04-16 16:56:23.319,100701,14473,17507,90194,114269
2025-04-16 16:56:23.332,100718,14465,17497,90174,114243
2025-04-16 16:56:23.339,100717,14460,17499,90148,114234
2025-04-16 16:56:23.364,100708,14463,17496,90131,114213
2025-04-16 16:56:23.365,100709,14459,17486,90115,114220
2025-04-16 16:56:23.372,100692,14455,17482,90106,114212
2025-04-16 16:56:23.380,100673,14452,17474,90112,114195
2025-04-16 16:56:23.392,100657,14449,17471,90100,114185
2025-04-16 16:56:23.399,100648,14442,17465,90087,114167
2025-04-16 16:56:23.412,100629,14435,17459,90051,114149
2025-04-16 16:56:23.426,100632,14434,17454,90037,114120
2025-04-16 16:56:23.432,100614,14430,17443,90026,114112
2025-04-16 16:56:23.440,100603,14422,17431,90002,114094
2025-04-16 16:56:23.452,100587,14413,17420,90001,114093
2025-04-16 16:56:23.460,100571,14408,17405,90001,114079
2025-04-16 16:56:23.471,100560,14398,17397,89997,114090
2025-04-16 16:56:23.489,100564,14385,17385,90020,114088
2025-04-16 16:56:23.492,100575,14378,17371,90005,114079
2025-04-16 16:56:23.495,100575,14378,17371,90005,114079
2025-04-16 16:56:23.499,100630,14358,17346,89993,114062
2025-04-16 16:56:23.512,100651,14351,17338,90027,114067
2025-04-16 16:56:23.520,100679,14346,17324,90035,114078
2025-04-16 16:56:23.531,100714,14338,17315,90026,114074
2025-04-16 16:56:23.552,100752,14333,17306,90017,114067
2025-04-16 16:56:23.554,100753,14321,17293,90012,114070
2025-04-16 16:56:23.563,100752,14313,17273,89963,114028
2025-04-16 16:56:23.571,100735,14295,17257,89937,113987
2025-04-16 16:56:23.584,100719,14274,17229,89863,113935
2025-04-16 16:56:23.591,100688,14255,17207,89765,113839
2025-04-16 16:56:23.616,100678,14231,17181,89644,113728
2025-04-16 16:56:23.617,100691,14214,17158,89454,113568
2025-04-16 16:56:23.623,100849,14224,17131,89338,113483
2025-04-16 16:56:23.631,100845,14212,17106,89423,113634
2025-04-16 16:56:23.643,100773,14178,17064,89291,113514
2025-04-16 16:56:23.652,100639,14135,17012,89127,113350
2025-04-16 16:56:23.663,100456,14093,16956,88913,113144
2025-04-16 16:56:23.678,100303,14055,16915,88708,112952
2025-04-16 16:56:23.683,100156,14017,16877,88530,112752
2025-04-16 16:56:23.691,100012,13980,16837,88382,112583
2025-04-16 16:56:23.703,99783,13926,16772,88150,112332
2025-04-16 16:56:23.712,99518,13859,16695,87850,112028
2025-04-16 16:56:23.723,99241,13811,16639,87622,111796
2025-04-16 16:56:23.745,99016,13774,16590,87490,111626
2025-04-16 16:56:23.746,98769,13719,16532,87334,111437
2025-04-16 16:56:23.752,98504,13661,16463,87133,111208
2025-04-16 16:56:23.763,98258,13621,16418,86976,111010
2025-04-16 16:56:23.771,98061,13600,16389,86956,110957
2025-04-16 16:56:23.783,97933,13587,16376,86990,110934
2025-04-16 16:56:23.806,97844,13578,16370,87021,110939
2025-04-16 16:56:23.810,97808,13568,16361,87048,110919
2025-04-16 16:56:23.816,97780,13570,16370,87086,110926
2025-04-16 16:56:23.824,97745,13568,16371,87140,110934
2025-04-16 16:56:23.835,97703,13563,16371,87175,110939
2025-04-16 16:56:23.844,97645,13548,16366,87171,110921
2025-04-16 16:56:23.855,97567,13528,16348,87103,110829
2025-04-16 16:56:23.869,97454,13502,16315,87026,110725
2025-04-16 16:56:23.875,97327,13476,16291,86936,110646
2025-04-16 16:56:23.884,97196,13449,16261,86940,110615
2025-04-16 16:56:23.895,96960,13412,16236,86935,110576
2025-04-16 16:56:23.904,96851,13372,16220,86720,110364
2025-04-16 16:56:23.915,96781,13320,16172,86443,110051
2025-04-16 16:56:23.931,96648,13290,16121,86428,110013
2025-04-16 16:56:23.935,96403,13252,16065,86701,110268
2025-04-16 16:56:23.943,96210,13216,16026,86832,110346
2025-04-16 16:56:23.955,96182,13205,16006,86786,110310
2025-04-16 16:56:23.964,96404,13257,16031,87010,110549
2025-04-16 16:56:23.975,96638,13294,15981,87825,111372
2025-04-16 16:56:23.994,96941,13281,15926,89076,112473
2025-04-16 16:56:23.995,97097,13245,15882,90376,113572
2025-04-16 16:56:24.003,96834,13205,15889,91296,114286
2025-04-16 16:56:24.016,96332,13138,15934,91366,114291
2025-04-16 16:56:24.023,96026,13060,15954,90848,113732
2025-04-16 16:56:24.036,95976,12939,15874,90532,113321
2025-04-16 16:56:24.043,95830,12760,15710,90686,113285
2025-04-16 16:56:24.058,95577,12574,15536,90693,113042
2025-04-16 16:56:24.063,95366,12439,15446,90767,112888
2025-04-16 16:56:24.075,95272,12369,15419,91122,112998
2025-04-16 16:56:24.083,95150,12351,15415,91336,112999
2025-04-16 16:56:24.095,95034,12361,15421,91336,112896
2025-04-16 16:56:24.103,95101,12412,15468,91412,112874
2025-04-16 16:56:24.121,95190,12500,15553,91664,113082
2025-04-16 16:56:24.127,95297,12650,15707,91896,113280
2025-04-16 16:56:24.135,95326,12818,15866,92038,113492
2025-04-16 16:56:24.147,95353,13006,16063,92158,113758
2025-04-16 16:56:24.156,95296,13186,16257,92275,114111
2025-04-16 16:56:24.167,95095,13325,16429,92136,114190
2025-04-16 16:56:24.183,94988,13441,16581,91511,113797
2025-04-16 16:56:24.187,95031,13521,16688,90651,113109
2025-04-16 16:56:24.194,95274,13619,16776,90034,112644
2025-04-16 16:56:24.207,95189,13556,16782,89813,112416
2025-04-16 16:56:24.215,95340,13528,16801,89006,111642
2025-04-16 16:56:24.227,95401,13357,16600,88800,111459
2025-04-16 16:56:24.246,95336,13193,16360,88701,111270
2025-04-16 16:56:24.247,94793,12922,16165,88972,111330
2025-04-16 16:56:24.255,94618,12797,16147,88537,110665
2025-04-16 16:56:24.267,94922,12765,16178,87667,109797
2025-04-16 16:56:24.274,95082,12767,16170,86931,109221
2025-04-16 16:56:24.287,95290,12770,16127,86494,108975
2025-04-16 16:56:24.308,95864,12803,16124,86618,109177
2025-04-16 16:56:24.309,96244,12839,16145,87026,109659
2025-04-16 16:56:24.316,96286,12815,16115,87041,109749
2025-04-16 16:56:24.327,96234,12784,16087,86719,109507
2025-04-16 16:56:24.335,96202,12771,16073,86565,109407
2025-04-16 16:56:24.347,96123,12757,16065,86448,109326
2025-04-16 16:56:24.355,95994,12730,16035,86211,109169
2025-04-16 16:56:24.371,95899,12724,16023,85819,108801
2025-04-16 16:56:24.376,95807,12733,16014,85449,108484
2025-04-16 16:56:24.387,95802,12754,16023,85227,108291
2025-04-16 16:56:24.394,95814,12746,16007,85134,108248
2025-04-16 16:56:24.407,95793,12723,15975,85064,108167
2025-04-16 16:56:24.415,95730,12699,15934,85004,108097
2025-04-16 16:56:24.434,95604,12654,15877,84874,107947
2025-04-16 16:56:24.439,95498,12629,15832,84702,107783
2025-04-16 16:56:24.448,95447,12612,15805,84616,107731
2025-04-16 16:56:24.458,95425,12589,15777,84589,107743
2025-04-16 16:56:24.466,95439,12573,15752,84494,107665
2025-04-16 16:56:24.479,95480,12573,15753,84436,107647
2025-04-16 16:56:24.495,95536,12577,15757,84437,107641
2025-04-16 16:56:24.498,95605,12587,15767,84346,107584
2025-04-16 16:56:24.503,95605,12587,15767,84346,107584
2025-04-16 16:56:24.507,95699,12643,15809,84273,107550
2025-04-16 16:56:24.519,95694,12663,15824,84295,107566
2025-04-16 16:56:24.527,95634,12660,15822,84225,107501
2025-04-16 16:56:24.539,95598,12667,15820,84086,107366
2025-04-16 16:56:24.558,95596,12681,15835,83989,107292
2025-04-16 16:56:24.559,95607,12703,15846,83976,107276
2025-04-16 16:56:24.567,95633,12740,15867,83949,107262
2025-04-16 16:56:24.578,95654,12771,15906,83935,107256
2025-04-16 16:56:24.587,95640,12795,15935,83956,107293
2025-04-16 16:56:24.599,95617,12808,15959,83952,107300
2025-04-16 16:56:24.607,95590,12826,15977,83980,107310
2025-04-16 16:56:24.622,95564,12847,15996,83993,107336
2025-04-16 16:56:24.627,95537,12856,16005,83991,107337
2025-04-16 16:56:24.639,95515,12867,16012,83970,107334
2025-04-16 16:56:24.647,95497,12878,16021,83972,107347
2025-04-16 16:56:24.658,95476,12889,16026,83974,107343
2025-04-16 16:56:24.667,95454,12899,16031,83963,107344
2025-04-16 16:56:24.684,95415,12896,16036,83977,107350
2025-04-16 16:56:24.687,95404,12898,16033,83963,107345
2025-04-16 16:56:24.699,95392,12897,16027,83956,107328
2025-04-16 16:56:24.706,95359,12892,16020,83950,107333
2025-04-16 16:56:24.719,95310,12885,16012,83951,107319
2025-04-16 16:56:24.727,95271,12877,16002,83914,107268
2025-04-16 16:56:24.747,95226,12860,15985,83893,107253
2025-04-16 16:56:24.748,95190,12856,15976,83855,107206
2025-04-16 16:56:24.758,95175,12854,15970,83809,107185
2025-04-16 16:56:24.770,95159,12855,15965,83828,107199
2025-04-16 16:56:24.778,95137,12867,15968,83841,107220
2025-04-16 16:56:24.791,95150,12871,15974,83873,107220
2025-04-16 16:56:24.809,95137,12878,15974,83910,107265
2025-04-16 16:56:24.811,95117,12874,15972,83908,107261
2025-04-16 16:56:24.819,95077,12874,15963,83874,107226
2025-04-16 16:56:24.831,94980,12877,15965,83843,107193
2025-04-16 16:56:24.838,94962,12882,15967,83845,107186
2025-04-16 16:56:24.851,94933,12868,15951,83822,107146
2025-04-16 16:56:24.858,94850,12872,15955,83706,107032
2025-04-16 16:56:24.873,94847,12910,15984,83780,107120
2025-04-16 16:56:24.879,94847,12911,15997,83906,107254
2025-04-16 16:56:24.891,94842,12905,15988,83772,107096
2025-04-16 16:56:24.898,94749,12924,16010,83683,107025
2025-04-16 16:56:24.911,94740,12947,16028,83797,107161
2025-04-16 16:56:24.918,94753,12952,16039,83836,107183
2025-04-16 16:56:24.935,94756,12969,16052,83778,107125
2025-04-16 16:56:24.939,94751,12986,16069,83774,107148
2025-04-16 16:56:24.951,94758,12989,16077,83792,107154
2025-04-16 16:56:24.958,94765,13000,16086,83809,107172
2025-04-16 16:56:24.970,94804,13006,16095,83820,107213
2025-04-16 16:56:24.979,94847,13022,16107,83849,107249
2025-04-16 16:56:24.999,94898,13033,16124,83885,107312
2025-04-16 16:56:25.000,94964,13047,16137,83931,107360
2025-04-16 16:56:25.011,95013,13069,16157,83977,107420
2025-04-16 16:56:25.019,95100,13098,16187,84063,107530
2025-04-16 16:56:25.031,95201,13126,16215,84161,107643
2025-04-16 16:56:25.038,95289,13151,16246,84229,107703
2025-04-16 16:56:25.062,95372,13180,16274,84300,107802
2025-04-16 16:56:25.063,95456,13210,16302,84402,107909
2025-04-16 16:56:25.070,95517,13237,16326,84496,108018
2025-04-16 16:56:25.079,95578,13277,16358,84615,108135
2025-04-16 16:56:25.091,95645,13312,16394,84747,108285
2025-04-16 16:56:25.103,95708,13343,16426,84858,108406
2025-04-16 16:56:25.110,95786,13379,16466,84966,108533
2025-04-16 16:56:25.125,95854,13412,16501,85111,108680
2025-04-16 16:56:25.131,95941,13445,16536,85237,108821
2025-04-16 16:56:25.142,96050,13472,16565,85288,108898
2025-04-16 16:56:25.150,96111,13498,16583,85331,108977
2025-04-16 16:56:25.163,96130,13518,16594,85468,109130
2025-04-16 16:56:25.170,96102,13527,16592,85631,109295
2025-04-16 16:56:25.187,96143,13551,16597,85808,109491
2025-04-16 16:56:25.191,96276,13573,16614,86032,109730
2025-04-16 16:56:25.202,96425,13598,16624,86340,110039
2025-04-16 16:56:25.210,96571,13621,16633,86704,110389
2025-04-16 16:56:25.223,96694,13645,16637,87155,110807
2025-04-16 16:56:25.230,96845,13661,16621,87684,111303
2025-04-16 16:56:25.251,97070,13689,16616,88508,112047
2025-04-16 16:56:25.252,97572,13723,16658,89545,112938
2025-04-16 16:56:25.263,98155,13765,16631,90531,113745
2025-04-16 16:56:25.271,98625,13815,16696,91397,114476
2025-04-16 16:56:25.283,98944,13849,16747,92160,115173
2025-04-16 16:56:25.290,99190,13874,16800,92753,115680
2025-04-16 16:56:25.315,99387,13879,16837,93199,116036
2025-04-16 16:56:25.316,99502,13867,16861,93500,116237
2025-04-16 16:56:25.323,99453,13856,16901,93672,116311
2025-04-16 16:56:25.330,99204,13871,16947,93560,116178
2025-04-16 16:56:25.342,98898,13873,16982,93314,116002
2025-04-16 16:56:25.351,98594,13875,17016,92991,115788
2025-04-16 16:56:25.363,98310,13864,17027,92637,115540
2025-04-16 16:56:25.377,98075,13857,17020,92257,115258
2025-04-16 16:56:25.382,97845,13838,17001,91886,114949
2025-04-16 16:56:25.391,97609,13799,16959,91554,114679
2025-04-16 16:56:25.402,97394,13775,16944,91274,114402
2025-04-16 16:56:25.415,97181,13768,16947,91102,114236
2025-04-16 16:56:25.423,97008,13770,16956,91007,114162
2025-04-16 16:56:25.439,96856,13766,16957,91017,114168
2025-04-16 16:56:25.442,96734,13754,16943,91042,114177
2025-04-16 16:56:25.454,96676,13762,16957,91072,114177
2025-04-16 16:56:25.462,96656,13805,17000,91057,114193
2025-04-16 16:56:25.475,96635,13867,17068,90967,114180
2025-04-16 16:56:25.483,96671,13936,17153,90785,114084
2025-04-16 16:56:25.505,96814,14039,17260,90536,113955
2025-04-16 16:56:25.506,97076,14156,17384,90356,113888
2025-04-16 16:56:25.508,97076,14156,17384,90356,113888
2025-04-16 16:56:25.515,97597,14343,17561,90165,113953
2025-04-16 16:56:25.522,97588,14365,17538,90128,114006
2025-04-16 16:56:25.535,97529,14375,17498,90065,114016
2025-04-16 16:56:25.543,97515,14359,17471,89896,113874
2025-04-16 16:56:25.554,97537,14347,17462,89568,113606
2025-04-16 16:56:25.571,97539,14337,17450,89224,113309
2025-04-16 16:56:25.575,97547,14336,17451,88930,113052
2025-04-16 16:56:25.582,97631,14356,17474,88824,113001
2025-04-16 16:56:25.594,97717,14383,17489,88940,113113
2025-04-16 16:56:25.603,97845,14404,17486,89100,113287
2025-04-16 16:56:25.614,98013,14423,17491,89280,113470
2025-04-16 16:56:25.634,98243,14437,17496,89444,113661
2025-04-16 16:56:25.635,98484,14467,17510,89606,113850
2025-04-16 16:56:25.642,98689,14480,17514,89772,114043
2025-04-16 16:56:25.654,98820,14490,17522,89878,114172
2025-04-16 16:56:25.662,98922,14491,17531,89944,114230
2025-04-16 16:56:25.674,98997,14481,17523,89918,114213
2025-04-16 16:56:25.682,99072,14484,17519,89869,114140
2025-04-16 16:56:25.697,99147,14489,17521,89872,114146
2025-04-16 16:56:25.706,99213,14499,17527,89904,114180
2025-04-16 16:56:25.714,99339,14508,17533,89976,114242
2025-04-16 16:56:25.723,99468,14522,17541,90070,114333
2025-04-16 16:56:25.734,99589,14536,17564,90189,114452
2025-04-16 16:56:25.759,99690,14552,17585,90301,114549
2025-04-16 16:56:25.760,99774,14569,17613,90391,114647
2025-04-16 16:56:25.765,99841,14584,17629,90451,114736
2025-04-16 16:56:25.774,99926,14596,17637,90514,114821
2025-04-16 16:56:25.787,99977,14593,17640,90518,114853
2025-04-16 16:56:25.794,100035,14589,17633,90442,114787
2025-04-16 16:56:25.807,100100,14586,17635,90321,114677
2025-04-16 16:56:25.822,100091,14581,17642,90208,114584
2025-04-16 16:56:25.826,100022,14571,17644,90180,114567
2025-04-16 16:56:25.834,99927,14568,17654,90227,114605
2025-04-16 16:56:25.846,99816,14573,17669,90314,114682
2025-04-16 16:56:25.855,99848,14586,17682,90474,114809
2025-04-16 16:56:25.866,99939,14591,17695,90531,114866
2025-04-16 16:56:25.885,100000,14599,17701,90531,114851
2025-04-16 16:56:25.886,100033,14594,17689,90473,114781
2025-04-16 16:56:25.894,100000,14577,17681,90382,114696
2025-04-16 16:56:25.906,99915,14563,17666,90289,114623
2025-04-16 16:56:25.914,99801,14537,17650,90226,114530
2025-04-16 16:56:25.925,99723,14514,17622,90169,114487
2025-04-16 16:56:25.934,99694,14494,17590,90094,114398
2025-04-16 16:56:25.949,99633,14470,17561,89976,114293
2025-04-16 16:56:25.954,99549,14467,17549,89913,114258
2025-04-16 16:56:25.965,99482,14454,17530,89888,114242
2025-04-16 16:56:25.974,99416,14439,17517,89816,114203
2025-04-16 16:56:25.986,99369,14412,17491,89688,114068
2025-04-16 16:56:25.994,99352,14394,17466,89485,113870
2025-04-16 16:56:26.011,99319,14370,17443,89292,113705
2025-04-16 16:56:26.019,99300,14368,17434,89173,113641
2025-04-16 16:56:26.025,99297,14397,17453,89128,113588
2025-04-16 16:56:26.038,99333,14447,17475,89316,113875
2025-04-16 16:56:26.046,99650,14341,17365,89397,114010
2025-04-16 16:56:26.058,99803,14293,17326,89043,113656
2025-04-16 16:56:26.074,99955,14306,17354,88823,113443
2025-04-16 16:56:26.077,99956,14323,17367,88567,113191
2025-04-16 16:56:26.086,99895,14303,17341,88373,113052
2025-04-16 16:56:26.098,99807,14297,17311,88288,112958
2025-04-16 16:56:26.107,99711,14313,17313,88400,113073
2025-04-16 16:56:26.118,99664,14334,17319,88641,113340
2025-04-16 16:56:26.136,99686,14336,17310,88769,113475
2025-04-16 16:56:26.138,99726,14340,17305,88702,113433
2025-04-16 16:56:26.146,99708,14347,17295,88743,113504
2025-04-16 16:56:26.158,99656,14364,17287,88874,113639
2025-04-16 16:56:26.166,99619,14373,17284,89064,113830
2025-04-16 16:56:26.178,99577,14383,17284,89173,113952
2025-04-16 16:56:26.185,99547,14391,17287,89199,113975
2025-04-16 16:56:26.200,99521,14393,17290,89193,113971
2025-04-16 16:56:26.206,99498,14401,17294,89159,113954
2025-04-16 16:56:26.218,99484,14403,17292,89191,113968
2025-04-16 16:56:26.227,99470,14404,17288,89227,114014
2025-04-16 16:56:26.238,99439,14405,17279,89283,114045
2025-04-16 16:56:26.246,99432,14397,17272,89327,114091
2025-04-16 16:56:26.262,99432,14389,17264,89323,114088
2025-04-16 16:56:26.266,99444,14378,17257,89254,114034
2025-04-16 16:56:26.278,99470,14381,17259,89204,113945
2025-04-16 16:56:26.286,99517,14369,17254,89125,113866
2025-04-16 16:56:26.298,99565,14363,17251,89013,113765
2025-04-16 16:56:26.310,99600,14357,17246,88868,113622
2025-04-16 16:56:26.325,99632,14349,17249,88732,113499
2025-04-16 16:56:26.326,99645,14347,17240,88629,113384
2025-04-16 16:56:26.339,99631,14346,17234,88536,113315
2025-04-16 16:56:26.350,99627,14354,17237,88525,113281
2025-04-16 16:56:26.358,99629,14362,17235,88564,113350
2025-04-16 16:56:26.370,99635,14367,17241,88597,113395
2025-04-16 16:56:26.387,99662,14376,17241,88639,113443
2025-04-16 16:56:26.390,99698,14383,17246,88677,113485
2025-04-16 16:56:26.397,99719,14393,17247,88736,113553
2025-04-16 16:56:26.410,99765,14406,17260,88798,113621
2025-04-16 16:56:26.418,99796,14424,17269,88884,113703
2025-04-16 16:56:26.430,99864,14442,17280,88962,113773
2025-04-16 16:56:26.450,99908,14452,17288,89049,113867
2025-04-16 16:56:26.451,99970,14464,17298,89139,113968
2025-04-16 16:56:26.458,100027,14477,17309,89223,114039
2025-04-16 16:56:26.469,100083,14483,17317,89343,114155
2025-04-16 16:56:26.478,100139,14494,17322,89485,114269
2025-04-16 16:56:26.490,100183,14507,17328,89598,114373
2025-04-16 16:56:26.497,100227,14524,17340,89726,114493
2025-04-16 16:56:26.513,100261,14534,17346,89834,114593
2025-04-16 16:56:26.514,100261,14534,17346,89834,114593
2025-04-16 16:56:26.518,100335,14562,17371,90083,114810
2025-04-16 16:56:26.529,100400,14571,17374,90179,114914
2025-04-16 16:56:26.538,100462,14576,17389,90229,114921
2025-04-16 16:56:26.550,100508,14582,17399,90227,114929
2025-04-16 16:56:26.558,100566,14586,17403,90237,114904
2025-04-16 16:56:26.576,100601,14590,17409,90257,114922
2025-04-16 16:56:26.578,100599,14592,17412,90284,114933
2025-04-16 16:56:26.590,100604,14586,17402,90347,114964
2025-04-16 16:56:26.602,100612,14570,17398,90384,114969
2025-04-16 16:56:26.610,100631,14569,17393,90387,114940
2025-04-16 16:56:26.621,100655,14566,17389,90420,114946
2025-04-16 16:56:26.639,100672,14570,17387,90480,114981
2025-04-16 16:56:26.642,100698,14569,17384,90569,115067
2025-04-16 16:56:26.650,100695,14573,17385,90657,115146
2025-04-16 16:56:26.661,100676,14574,17377,90762,115232
2025-04-16 16:56:26.670,100742,14579,17390,90898,115372
2025-04-16 16:56:26.682,100943,14591,17380,91036,115478
2025-04-16 16:56:26.702,101154,14602,17368,91184,115610
2025-04-16 16:56:26.704,101325,14608,17353,91332,115729
2025-04-16 16:56:26.710,101460,14611,17333,91447,115817
2025-04-16 16:56:26.721,101541,14615,17325,91552,115882
2025-04-16 16:56:26.730,101591,14606,17312,91609,115913
2025-04-16 16:56:26.741,101643,14608,17317,91636,115903
2025-04-16 16:56:26.750,101693,14617,17325,91642,115897
2025-04-16 16:56:26.765,101720,14627,17342,91663,115902
2025-04-16 16:56:26.769,101740,14649,17366,91711,115953
2025-04-16 16:56:26.782,101730,14662,17383,91802,116036
2025-04-16 16:56:26.789,101730,14663,17391,91851,116088
2025-04-16 16:56:26.802,101713,14666,17386,91902,116119
2025-04-16 16:56:26.813,101687,14666,17386,91929,116131
2025-04-16 16:56:26.827,101665,14661,17377,91969,116154
2025-04-16 16:56:26.834,101663,14654,17368,91993,116183
2025-04-16 16:56:26.841,101680,14649,17355,92029,116200
2025-04-16 16:56:26.854,101702,14642,17333,92081,116255
2025-04-16 16:56:26.862,101709,14625,17311,92097,116244
2025-04-16 16:56:26.873,101708,14616,17299,92119,116247
2025-04-16 16:56:26.890,101638,14592,17280,92166,116271
2025-04-16 16:56:26.893,101588,14583,17266,92243,116322
2025-04-16 16:56:26.902,101523,14573,17256,92359,116403
2025-04-16 16:56:26.913,101428,14547,17236,92396,116430
2025-04-16 16:56:26.922,101315,14524,17202,92422,116428
2025-04-16 16:56:26.934,101225,14501,17180,92471,116462
2025-04-16 16:56:26.952,101140,14471,17153,92537,116493
2025-04-16 16:56:26.954,101031,14447,17126,92634,116546
2025-04-16 16:56:26.962,100917,14410,17096,92712,116641
2025-04-16 16:56:26.974,100829,14384,17069,92786,116643
2025-04-16 16:56:26.982,100784,14357,17049,92889,116706
2025-04-16 16:56:26.994,100738,14332,17036,92980,116767
2025-04-16 16:56:27.019,100671,14315,17014,93036,116787
2025-04-16 16:56:27.020,100581,14288,16995,93084,116798
2025-04-16 16:56:27.022,100515,14270,16971,93113,116782
2025-04-16 16:56:27.033,100433,14250,16957,93167,116792
2025-04-16 16:56:27.041,100379,14237,16941,93249,116832
2025-04-16 16:56:27.054,100339,14229,16933,93313,116866
2025-04-16 16:56:27.065,100269,14215,16922,93387,116919
2025-04-16 16:56:27.085,100216,14203,16917,93455,116929
2025-04-16 16:56:27.087,100184,14189,16905,93505,116941
2025-04-16 16:56:27.094,100128,14175,16895,93540,116916
2025-04-16 16:56:27.105,100055,14151,16879,93564,116916
2025-04-16 16:56:27.113,99999,14136,16861,93573,116890
2025-04-16 16:56:27.125,99958,14105,16840,93570,116819
2025-04-16 16:56:27.135,99893,14080,16817,93550,116764
2025-04-16 16:56:27.151,99873,14057,16794,93498,116685
2025-04-16 16:56:27.153,99862,14032,16772,93477,116597
2025-04-16 16:56:27.166,99849,14008,16748,93406,116515
2025-04-16 16:56:27.173,99831,13992,16724,93352,116447
2025-04-16 16:56:27.186,99821,13966,16702,93302,116366
2025-04-16 16:56:27.194,99807,13927,16674,93229,116241
2025-04-16 16:56:27.214,99786,13896,16650,93132,116137
2025-04-16 16:56:27.215,99780,13851,16620,93012,115967
2025-04-16 16:56:27.226,99792,13825,16599,92901,115809
2025-04-16 16:56:27.233,99770,13808,16616,92847,115731
2025-04-16 16:56:27.246,99804,13790,16600,92822,115701
2025-04-16 16:56:27.253,99786,13788,16589,92829,115675
2025-04-16 16:56:27.276,99738,13802,16594,92906,115765
2025-04-16 16:56:27.277,99711,13826,16608,93037,115867
2025-04-16 16:56:27.285,99685,13849,16624,93166,115995
2025-04-16 16:56:27.293,99682,13890,16659,93309,116147
2025-04-16 16:56:27.305,99701,13914,16693,93462,116299
2025-04-16 16:56:27.318,99738,13954,16726,93632,116473
2025-04-16 16:56:27.340,99769,13979,16761,93772,116622
2025-04-16 16:56:27.341,99780,14005,16783,93889,116752
2025-04-16 16:56:27.346,99798,14023,16802,93981,116838
2025-04-16 16:56:27.357,99805,14043,16812,94037,116903
2025-04-16 16:56:27.365,99828,14052,16827,94063,116938
2025-04-16 16:56:27.378,99859,14060,16829,94086,116945
2025-04-16 16:56:27.385,99933,14066,16837,94080,116944
2025-04-16 16:56:27.403,100005,14072,16846,94088,116961
2025-04-16 16:56:27.406,100066,14086,16858,94104,116977
2025-04-16 16:56:27.417,100118,14102,16870,94124,116983
2025-04-16 16:56:27.426,100147,14126,16891,94153,117029
2025-04-16 16:56:27.438,100154,14159,16917,94186,117086
2025-04-16 16:56:27.445,100192,14187,16940,94240,117147
2025-04-16 16:56:27.466,100252,14214,16968,94318,117234
2025-04-16 16:56:27.467,100319,14245,16996,94406,117356
2025-04-16 16:56:27.477,100393,14277,17025,94482,117466
2025-04-16 16:56:27.485,100447,14304,17052,94568,117589
2025-04-16 16:56:27.497,100478,14331,17070,94627,117668
2025-04-16 16:56:27.505,100505,14347,17088,94666,117737
2025-04-16 16:56:27.529,100505,14359,17098,94678,117770
2025-04-16 16:56:27.530,100505,14359,17098,94678,117770
2025-04-16 16:56:27.531,100469,14383,17116,94653,117775
2025-04-16 16:56:27.537,100446,14389,17122,94611,117721
2025-04-16 16:56:27.545,100427,14396,17116,94560,117687
2025-04-16 16:56:27.557,100432,14390,17119,94472,117621
2025-04-16 16:56:27.564,100417,14393,17117,94405,117534
2025-04-16 16:56:27.577,100430,14393,17118,94301,117455
2025-04-16 16:56:27.591,100466,14400,17124,94215,117380
2025-04-16 16:56:27.598,100514,14414,17138,94126,117293
2025-04-16 16:56:27.605,100596,14441,17173,94027,117258
2025-04-16 16:56:27.617,100657,14450,17186,93934,117177
2025-04-16 16:56:27.629,100718,14455,17191,93870,117137
2025-04-16 16:56:27.637,100780,14460,17195,93884,117142
2025-04-16 16:56:27.653,100858,14470,17201,93883,117160
2025-04-16 16:56:27.656,100918,14477,17205,93843,117144
2025-04-16 16:56:27.668,100973,14480,17211,93800,117100
2025-04-16 16:56:27.677,101013,14486,17223,93787,117087
2025-04-16 16:56:27.689,101055,14491,17233,93773,117075
2025-04-16 16:56:27.696,101097,14492,17238,93774,117051
2025-04-16 16:56:27.716,101132,14491,17248,93740,117034
2025-04-16 16:56:27.717,101156,14496,17254,93727,117021
2025-04-16 16:56:27.729,101195,14496,17256,93724,117018
2025-04-16 16:56:27.737,101237,14502,17259,93706,117016
2025-04-16 16:56:27.749,101266,14499,17268,93717,117015
2025-04-16 16:56:27.757,101303,14501,17268,93677,116997
2025-04-16 16:56:27.780,101345,14502,17275,93617,116944
2025-04-16 16:56:27.781,101380,14502,17280,93569,116880
2025-04-16 16:56:27.789,101415,14517,17294,93519,116856
2025-04-16 16:56:27.797,101266,14505,17308,93471,116804
2025-04-16 16:56:27.810,101140,14497,17313,93417,116769
2025-04-16 16:56:27.817,100969,14478,17332,93384,116726
2025-04-16 16:56:27.829,100948,14455,17329,93338,116698
2025-04-16 16:56:27.843,100958,14441,17325,93261,116603
2025-04-16 16:56:27.850,100906,14425,17309,93195,116550
2025-04-16 16:56:27.861,100904,14415,17289,93114,116440
2025-04-16 16:56:27.869,100899,14401,17274,92979,116312
2025-04-16 16:56:27.881,100858,14387,17252,92772,116072
2025-04-16 16:56:27.889,100734,14358,17225,92464,115720
2025-04-16 16:56:27.907,100837,14356,17226,92118,115345
2025-04-16 16:56:27.908,100749,14373,17222,91969,115255
2025-04-16 16:56:27.921,100694,14395,17226,91914,115259
2025-04-16 16:56:27.929,100847,14413,17230,91862,115268
2025-04-16 16:56:27.941,101082,14432,17254,91799,115274
2025-04-16 16:56:27.949,101291,14434,17265,91623,115156
2025-04-16 16:56:27.970,101603,14442,17307,91318,114894
2025-04-16 16:56:27.971,101803,14414,17318,90846,114469
2025-04-16 16:56:27.981,101945,14375,17317,90204,113851
2025-04-16 16:56:27.989,101975,14318,17267,89710,113372
2025-04-16 16:56:28.001,101882,14250,17197,89413,113094
2025-04-16 16:56:28.009,101739,14183,17115,89330,113028
2025-04-16 16:56:28.032,101633,14127,17057,89450,113092
2025-04-16 16:56:28.033,101624,14105,17019,89698,113285
2025-04-16 16:56:28.041,101562,14073,16984,89972,113540
2025-04-16 16:56:28.049,101347,13974,16897,89991,113524
2025-04-16 16:56:28.061,101025,13871,16804,89718,113161
2025-04-16 16:56:28.069,100726,13839,16759,89570,112958
2025-04-16 16:56:28.081,100474,13838,16747,89677,113041
2025-04-16 16:56:28.096,100347,13861,16700,89924,113251
2025-04-16 16:56:28.101,100097,13893,16661,90114,113338
2025-04-16 16:56:28.112,99732,13892,16582,90372,113480
2025-04-16 16:56:28.120,99607,13873,16536,90790,113749
2025-04-16 16:56:28.133,99382,13843,16529,91549,114328
2025-04-16 16:56:28.140,99267,13815,16614,92195,114842
2025-04-16 16:56:28.158,100464,13877,17113,92744,115381
2025-04-16 16:56:28.161,100862,14034,17299,93933,116774
2025-04-16 16:56:28.173,102693,14195,18007,94727,117709
2025-04-16 16:56:28.181,106364,14374,18998,96788,120416
2025-04-16 16:56:28.193,107181,14649,19216,99074,123036
2025-04-16 16:56:28.200,107954,14813,19311,100058,124073
2025-04-16 16:56:28.221,108389,14858,19301,100744,124731
2025-04-16 16:56:28.223,108545,14927,19335,101124,125097
2025-04-16 16:56:28.232,108673,15010,19407,101478,125539
2025-04-16 16:56:28.240,108808,15020,19458,101615,125810
2025-04-16 16:56:28.253,109143,15052,19529,101487,125703
2025-04-16 16:56:28.261,109912,15134,19630,101502,125788
2025-04-16 16:56:28.284,110954,15238,19695,101922,126204
2025-04-16 16:56:28.285,111618,15232,19637,102672,126758
2025-04-16 16:56:28.292,111760,15101,19495,102986,126869
2025-04-16 16:56:28.301,111518,14901,19356,102828,126823
2025-04-16 16:56:28.313,110965,14705,19250,102117,126067
2025-04-16 16:56:28.324,110161,14494,19153,101580,125498
2025-04-16 16:56:28.329,110161,14494,19153,101580,125498
2025-04-16 16:56:28.333,108286,14174,19010,100346,124097
2025-04-16 16:56:28.347,107515,14074,18961,99833,123483
2025-04-16 16:56:28.353,107008,14066,18956,99557,123150
2025-04-16 16:56:28.365,106654,14108,18970,99562,123094
2025-04-16 16:56:28.372,106531,14161,19007,99656,123177
2025-04-16 16:56:28.385,106539,14223,19058,99775,123354
2025-04-16 16:56:28.392,106616,14283,19108,99949,123602
2025-04-16 16:56:28.410,106757,14317,19134,100133,123861
2025-04-16 16:56:28.413,106954,14350,19159,100279,124059
2025-04-16 16:56:28.425,107223,14394,19207,100408,124231
2025-04-16 16:56:28.432,107551,14443,19255,100567,124483
2025-04-16 16:56:28.444,107863,14490,19302,100718,124679
2025-04-16 16:56:28.453,108149,14518,19339,100786,124800
2025-04-16 16:56:28.474,108341,14523,19353,100763,124833
2025-04-16 16:56:28.476,108477,14515,19349,100662,124728
2025-04-16 16:56:28.485,108567,14497,19329,100481,124513
2025-04-16 16:56:28.492,108607,14486,19311,100262,124262
2025-04-16 16:56:28.505,108623,14481,19288,100053,123983
2025-04-16 16:56:28.513,108380,14503,19163,99833,123717
2025-04-16 16:56:28.537,104878,14558,18251,99288,122893
2025-04-16 16:56:28.538,102314,14599,17625,96740,119818
2025-04-16 16:56:28.545,101850,14596,17598,95348,118210
2025-04-16 16:56:28.552,101518,14576,17607,95067,118022
2025-04-16 16:56:28.564,101180,14529,17520,94682,117650
2025-04-16 16:56:28.572,101014,14525,17520,93748,116702
2025-04-16 16:56:28.584,101707,14646,17504,93173,116404
2025-04-16 16:56:28.599,101936,14636,17451,93404,117079
2025-04-16 16:56:28.604,101971,14584,17410,92633,116388
2025-04-16 16:56:28.613,101594,14487,17344,91691,115580
2025-04-16 16:56:28.625,101422,14419,17281,90746,114714
2025-04-16 16:56:28.633,101290,14343,17219,89997,114044
2025-04-16 16:56:28.644,101324,14271,17171,89098,113175
2025-04-16 16:56:28.661,101570,14233,17146,88203,112341
2025-04-16 16:56:28.665,102087,14217,17143,87373,111587
2025-04-16 16:56:28.676,102531,14221,17153,86618,110868
2025-04-16 16:56:28.684,102805,14220,17171,86062,110342
2025-04-16 16:56:28.697,102996,14230,17177,85515,109792
2025-04-16 16:56:28.705,103132,14249,17194,85120,109390
2025-04-16 16:56:28.725,103221,14283,17205,84875,109134
2025-04-16 16:56:28.726,103069,14296,17210,84749,108981
2025-04-16 16:56:28.736,102907,14310,17222,84491,108670
2025-04-16 16:56:28.744,102718,14331,17248,84349,108503
2025-04-16 16:56:28.757,102627,14354,17283,84238,108333
2025-04-16 16:56:28.764,102630,14382,17327,84214,108309
2025-04-16 16:56:28.787,102622,14406,17366,84192,108274
2025-04-16 16:56:28.788,102653,14441,17411,84174,108242
2025-04-16 16:56:28.796,102681,14474,17459,84224,108326
2025-04-16 16:56:28.804,102690,14517,17517,84296,108402
2025-04-16 16:56:28.817,102685,14528,17559,84381,108543
2025-04-16 16:56:28.824,102652,14493,17542,84370,108568
2025-04-16 16:56:28.836,102455,14391,17439,84200,108367
2025-04-16 16:56:28.850,102337,14308,17336,83672,107656
2025-04-16 16:56:28.857,102443,14261,17235,83322,107279
2025-04-16 16:56:28.864,103185,14336,17188,83194,107187
2025-04-16 16:56:28.877,103547,14365,17156,83852,108097
2025-04-16 16:56:28.888,103610,14384,17140,83922,108117
2025-04-16 16:56:28.896,103714,14435,17169,83996,108153
2025-04-16 16:56:28.912,103937,14529,17242,84165,108346
2025-04-16 16:56:28.917,104158,14649,17355,84451,108663
2025-04-16 16:56:28.928,103925,14719,17440,84853,109095
2025-04-16 16:56:28.936,103512,14767,17528,84878,108982
2025-04-16 16:56:28.949,103507,14850,17608,85019,109080
2025-04-16 16:56:28.956,103575,14949,17708,85395,109477
2025-04-16 16:56:28.974,103725,15035,17809,85769,109884
2025-04-16 16:56:28.977,103926,15116,17892,86137,110311
2025-04-16 16:56:28.988,104111,15170,17943,86455,110681
2025-04-16 16:56:28.996,104222,15209,17968,86704,110952
2025-04-16 16:56:29.008,104256,15245,17971,86942,111229
2025-04-16 16:56:29.016,104161,15249,17973,87177,111507
2025-04-16 16:56:29.037,103832,15226,17957,87208,111492
2025-04-16 16:56:29.039,103817,15227,17911,87343,111669
2025-04-16 16:56:29.049,103596,15265,17890,87605,111937
2025-04-16 16:56:29.055,103599,15287,17867,87905,112298
2025-04-16 16:56:29.068,103633,15304,17851,88152,112556
2025-04-16 16:56:29.076,103683,15323,17837,88388,112803
2025-04-16 16:56:29.100,103731,15345,17819,88601,113036
2025-04-16 16:56:29.101,103855,15360,17793,88801,113251
2025-04-16 16:56:29.108,104052,15407,17803,89049,113520
2025-04-16 16:56:29.120,104211,15458,17815,89433,114009
2025-04-16 16:56:29.128,104306,15487,17826,89873,114534
2025-04-16 16:56:29.131,104306,15487,17826,89873,114534
2025-04-16 16:56:29.141,104437,15542,17864,90476,115166
2025-04-16 16:56:29.148,104393,15564,17890,90786,115476
2025-04-16 16:56:29.163,104400,15600,17937,91038,115711
2025-04-16 16:56:29.168,104408,15626,17975,91276,115949
2025-04-16 16:56:29.180,104420,15622,17989,91410,116056
2025-04-16 16:56:29.188,104435,15587,17976,91326,115937
2025-04-16 16:56:29.200,104389,15532,17954,91041,115600
2025-04-16 16:56:29.208,104363,15466,17931,90685,115183
2025-04-16 16:56:29.226,104066,15365,17870,90270,114732
2025-04-16 16:56:29.228,103126,15183,17807,89653,113967
2025-04-16 16:56:29.240,102380,15041,17746,89087,113306
2025-04-16 16:56:29.248,102195,14889,17628,88670,112846
2025-04-16 16:56:29.261,102133,14788,17552,88068,112227
2025-04-16 16:56:29.268,102066,14707,17510,87747,111897
2025-04-16 16:56:29.289,102137,14684,17490,87530,111606
2025-04-16 16:56:29.290,102111,14613,17423,87506,111563
2025-04-16 16:56:29.300,102029,14582,17381,87323,111333
2025-04-16 16:56:29.308,101994,14565,17368,87325,111297
2025-04-16 16:56:29.321,101998,14580,17383,87335,111290
2025-04-16 16:56:29.332,102110,14600,17416,87399,111344
2025-04-16 16:56:29.352,102244,14635,17451,87452,111423
2025-04-16 16:56:29.353,102429,14704,17527,87602,111627
2025-04-16 16:56:29.360,102686,14799,17655,87967,112043
2025-04-16 16:56:29.372,103095,14898,17735,88475,112636
2025-04-16 16:56:29.380,103826,14998,17757,89045,113245
2025-04-16 16:56:29.391,104062,15072,17809,89559,113813
2025-04-16 16:56:29.400,104094,15148,17856,90163,114439
2025-04-16 16:56:29.414,104105,15198,17886,90707,115039
2025-04-16 16:56:29.420,104103,15244,17919,91064,115415
2025-04-16 16:56:29.432,104121,15288,17956,91329,115731
2025-04-16 16:56:29.441,104101,15320,17985,91608,116022
2025-04-16 16:56:29.451,104543,15350,18160,91948,116407
2025-04-16 16:56:29.460,106730,15387,18633,92943,117684
2025-04-16 16:56:29.477,106763,15380,18635,94540,119438
2025-04-16 16:56:29.481,106669,15354,18619,94810,119698
2025-04-16 16:56:29.492,106616,15329,18610,95033,119866
2025-04-16 16:56:29.500,106644,15329,18622,95276,120090
2025-04-16 16:56:29.512,106945,15330,18731,95583,120384
2025-04-16 16:56:29.519,108347,15334,19156,96157,121049
2025-04-16 16:56:29.540,108873,15359,19283,97388,122499
2025-04-16 16:56:29.541,108949,15391,19327,97730,122809
2025-04-16 16:56:29.553,109073,15430,19384,97898,122939
2025-04-16 16:56:29.559,109253,15465,19437,97924,122962
2025-04-16 16:56:29.572,109523,15466,19479,97784,122789
2025-04-16 16:56:29.579,109815,15431,19488,97388,122359
2025-04-16 16:56:29.603,110103,15381,19474,96776,121757
2025-04-16 16:56:29.604,110249,15331,19445,96179,121160
2025-04-16 16:56:29.611,108018,15221,18804,95652,120555
2025-04-16 16:56:29.624,104377,14934,17983,93017,117083
2025-04-16 16:56:29.632,104617,14705,17896,90696,114217
2025-04-16 16:56:29.644,104338,14545,17767,90106,113366
2025-04-16 16:56:29.651,104150,14489,17718,89565,112646
2025-04-16 16:56:29.666,104094,14499,17746,89433,112533
2025-04-16 16:56:29.672,104046,14555,17831,89451,112635
2025-04-16 16:56:29.684,104076,14618,17874,89502,112797
2025-04-16 16:56:29.692,104231,14688,17893,89581,112955
2025-04-16 16:56:29.703,104026,14785,17910,89694,113148
2025-04-16 16:56:29.712,103741,14887,17948,89990,113517
2025-04-16 16:56:29.728,103762,14963,18002,90351,113970
2025-04-16 16:56:29.732,103819,15021,18032,90721,114335
2025-04-16 16:56:29.744,103835,15058,18055,90972,114590
2025-04-16 16:56:29.751,103860,15095,18081,91150,114788
2025-04-16 16:56:29.763,103872,15139,18112,91340,114986
2025-04-16 16:56:29.772,103844,15217,18156,91687,115361
2025-04-16 16:56:29.792,103771,15300,18205,92216,115912
2025-04-16 16:56:29.793,103685,15357,18228,92776,116479
2025-04-16 16:56:29.804,103699,15412,18251,93257,116938
2025-04-16 16:56:29.812,104229,15555,18320,93750,117500
2025-04-16 16:56:29.824,104318,15603,18351,94673,118566
2025-04-16 16:56:29.835,104864,15648,18478,95029,118966
2025-04-16 16:56:29.854,106865,15707,18841,95812,120001
2025-04-16 16:56:29.856,106954,15729,18857,97077,121408
2025-04-16 16:56:29.863,106928,15731,18852,97204,121558
2025-04-16 16:56:29.876,106876,15705,18820,97215,121567
2025-04-16 16:56:29.884,106779,15679,18792,97151,121504
2025-04-16 16:56:29.896,106636,15656,18773,97129,121460
2025-04-16 16:56:29.917,106565,15666,18782,97211,121519
2025-04-16 16:56:29.919,106544,15675,18796,97375,121675
2025-04-16 16:56:29.924,106415,15545,18737,97438,121699
2025-04-16 16:56:29.936,106436,15638,18807,97325,121588
2025-04-16 16:56:29.944,106621,15710,18875,97539,121816
2025-04-16 16:56:29.955,106835,15674,18884,97521,121762
2025-04-16 16:56:29.964,107017,15624,18877,97115,121294
2025-04-16 16:56:29.980,107107,15571,18863,96621,120720
2025-04-16 16:56:29.984,107357,15560,18890,96249,120322
2025-04-16 16:56:29.995,107501,15565,18848,96183,120274
2025-04-16 16:56:30.003,105274,15518,18376,95865,119785
2025-04-16 16:56:30.016,105669,15451,18631,94506,118174
2025-04-16 16:56:30.023,106364,15491,18858,94405,117977
2025-04-16 16:56:30.042,107233,15703,19223,94716,118217
2025-04-16 16:56:30.043,107930,15794,19513,95233,118738
2025-04-16 16:56:30.056,108330,15915,19662,95520,118995
2025-04-16 16:56:30.064,108365,15972,19651,95898,119386
2025-04-16 16:56:30.075,108437,16048,19638,96250,119784
2025-04-16 16:56:30.088,108327,16116,19643,96610,120194
2025-04-16 16:56:30.105,107561,16128,19608,96832,120451
2025-04-16 16:56:30.107,107517,16116,19580,96883,120529
2025-04-16 16:56:30.115,107452,16088,19523,96914,120573
2025-04-16 16:56:30.128,107312,16054,19452,96944,120604
2025-04-16 16:56:30.135,107130,16013,19363,97023,120658
2025-04-16 16:56:30.139,107130,16013,19363,97023,120658
2025-04-16 16:56:30.148,106777,15881,19162,97019,120629
2025-04-16 16:56:30.169,106621,15794,19046,96925,120533
2025-04-16 16:56:30.170,106472,15694,18924,96724,120297
2025-04-16 16:56:30.175,106279,15595,18795,96479,120026
2025-04-16 16:56:30.187,106046,15499,18668,96209,119757
2025-04-16 16:56:30.196,105805,15441,18572,96003,119560
2025-04-16 16:56:30.207,105475,15370,18480,95894,119441
2025-04-16 16:56:30.215,105211,15329,18404,95778,119321
2025-04-16 16:56:30.232,104999,15296,18354,95679,119236
2025-04-16 16:56:30.236,104859,15261,18309,95571,119162
2025-04-16 16:56:30.247,104800,15244,18293,95485,119113
2025-04-16 16:56:30.256,104804,15255,18296,95432,119074
2025-04-16 16:56:30.268,104823,15268,18308,95469,119175
2025-04-16 16:56:30.276,104822,15280,18317,95441,119152
2025-04-16 16:56:30.295,104879,15307,18352,95408,119143
2025-04-16 16:56:30.296,104969,15339,18395,95393,119151
2025-04-16 16:56:30.307,105102,15365,18439,95340,119123
2025-04-16 16:56:30.315,105230,15375,18454,95273,119079
2025-04-16 16:56:30.328,105332,15360,18469,95109,118929
2025-04-16 16:56:30.339,105458,15344,18484,94890,118712
2025-04-16 16:56:30.359,105591,15332,18513,94607,118407
2025-04-16 16:56:30.360,105574,15298,18503,94296,118074
2025-04-16 16:56:30.368,105055,15149,18482,93818,117548
2025-04-16 16:56:30.380,104945,14915,18202,93171,116731
2025-04-16 16:56:30.387,105106,14814,18105,92475,115895
2025-04-16 16:56:30.399,105694,14873,18143,92588,116077
2025-04-16 16:56:30.408,105760,14951,18200,93358,116830
2025-04-16 16:56:30.422,105537,15002,18171,93758,117235
2025-04-16 16:56:30.427,105290,15064,18143,93865,117454
2025-04-16 16:56:30.439,104873,15128,18250,93990,117700
2025-04-16 16:56:30.447,104637,15168,18408,93882,117718
2025-04-16 16:56:30.459,105824,15187,18440,93732,117627
2025-04-16 16:56:30.467,105649,15292,18408,93500,117365
2025-04-16 16:56:30.486,105565,15339,18423,93761,117725
2025-04-16 16:56:30.488,105462,15365,18433,93929,117888
2025-04-16 16:56:30.499,104964,15367,18446,94151,118111
2025-04-16 16:56:30.507,104867,15374,18430,94546,118503
2025-04-16 16:56:30.520,104735,15379,18365,94910,118781
2025-04-16 16:56:30.527,104029,15418,18288,95261,119104
2025-04-16 16:56:30.548,104256,15433,18178,95626,119457
2025-04-16 16:56:30.550,104567,15466,18131,95726,119502
2025-04-16 16:56:30.559,104729,15526,18164,95864,119648
2025-04-16 16:56:30.571,104715,15564,18182,96089,119925
2025-04-16 16:56:30.579,104716,15597,18200,96131,120018
2025-04-16 16:56:30.591,104703,15633,18220,96229,120167
2025-04-16 16:56:30.612,104700,15664,18238,96434,120396
2025-04-16 16:56:30.614,104877,15686,18303,96687,120692
2025-04-16 16:56:30.620,106142,15705,18603,97127,121267
2025-04-16 16:56:30.631,106074,15669,18570,97975,122244
2025-04-16 16:56:30.639,105998,15645,18547,97981,122243
2025-04-16 16:56:30.652,105918,15613,18534,98035,122305
2025-04-16 16:56:30.659,106021,15651,18610,98065,122361
2025-04-16 16:56:30.675,106043,15673,18630,98504,122922
2025-04-16 16:56:30.679,106328,15797,18755,98564,122987
2025-04-16 16:56:30.691,106494,15694,18709,98645,123056
2025-04-16 16:56:30.699,106578,15605,18675,97958,122286
2025-04-16 16:56:30.711,106527,15519,18622,97380,121644
2025-04-16 16:56:30.720,106567,15461,18582,96829,121059
2025-04-16 16:56:30.738,105023,15362,18049,96267,120496
2025-04-16 16:56:30.739,103841,15186,18033,94734,118615
2025-04-16 16:56:30.752,103664,15046,17962,94497,118477
2025-04-16 16:56:30.759,103680,14924,17907,94249,118156
2025-04-16 16:56:30.771,103802,14924,17937,94165,117995
2025-04-16 16:56:30.780,103904,14872,17934,94299,118089
2025-04-16 16:56:30.800,103859,14798,17947,94190,117993
2025-04-16 16:56:30.804,103939,14740,17931,93817,117640
2025-04-16 16:56:30.811,105014,14794,17957,93546,117360
2025-04-16 16:56:30.823,105201,14870,17957,93754,117581
2025-04-16 16:56:30.831,104798,14925,17954,93923,117788
2025-04-16 16:56:30.843,104808,14926,17937,94081,117995
2025-04-16 16:56:30.863,104782,14913,17909,94078,118005
2025-04-16 16:56:30.864,104703,14911,17885,94050,117979
2025-04-16 16:56:30.872,104614,14926,17885,94055,118019
2025-04-16 16:56:30.883,104524,14935,17880,94115,118104
2025-04-16 16:56:30.891,104504,14946,17884,94135,118151
2025-04-16 16:56:30.903,104488,14952,17885,94123,118167
2025-04-16 16:56:30.911,104507,14946,17893,94017,118075
2025-04-16 16:56:30.925,104510,14951,17903,93834,117930
2025-04-16 16:56:30.931,104450,14959,17903,93731,117867
2025-04-16 16:56:30.943,104382,14981,17887,93656,117817
2025-04-16 16:56:30.947,104382,14981,17887,93656,117817
2025-04-16 16:56:30.951,104245,15022,17815,93810,118007
2025-04-16 16:56:30.963,104189,15022,17799,93875,118080
2025-04-16 16:56:30.971,104153,15028,17789,94010,118173
2025-04-16 16:56:30.987,104120,15045,17794,94193,118351
2025-04-16 16:56:30.991,104070,15071,17813,94396,118546
2025-04-16 16:56:31.003,104072,15096,17844,94572,118691
2025-04-16 16:56:31.015,104102,15129,17889,94654,118778
2025-04-16 16:56:31.023,104195,15176,17943,94748,118861
2025-04-16 16:56:31.036,104355,15203,17996,94832,118943
2025-04-16 16:56:31.050,104580,15222,18042,94760,118866
2025-04-16 16:56:31.054,104876,15227,18095,94572,118681
2025-04-16 16:56:31.063,105175,15189,18113,94197,118297
2025-04-16 16:56:31.075,105208,15074,18070,93542,117595
2025-04-16 16:56:31.083,104849,14911,18043,92480,116409
2025-04-16 16:56:31.095,103856,14580,17848,91538,115409
2025-04-16 16:56:31.114,103515,14264,17583,90037,113637
2025-04-16 16:56:31.115,103473,14133,17363,88861,112405
2025-04-16 16:56:31.123,103498,14130,17283,88744,112468
2025-04-16 16:56:31.135,103316,14172,17298,89014,112793
2025-04-16 16:56:31.143,103057,14194,17315,89226,113024
2025-04-16 16:56:31.155,102938,14241,17342,89027,112786
2025-04-16 16:56:31.176,102888,14328,17396,89044,112825
2025-04-16 16:56:31.178,102789,14447,17513,89305,113127
2025-04-16 16:56:31.184,102559,14553,17686,89705,113587
2025-04-16 16:56:31.195,102710,14635,17693,89970,113967
2025-04-16 16:56:31.203,103104,14703,17680,90063,114058
2025-04-16 16:56:31.215,103044,14774,17729,90180,114191
2025-04-16 16:56:31.223,102497,14824,17769,90598,114669
2025-04-16 16:56:31.239,102233,14885,17782,91307,115395
2025-04-16 16:56:31.243,102060,14947,17802,92033,116110
2025-04-16 16:56:31.255,101983,14994,17815,92792,116853
2025-04-16 16:56:31.267,102255,15086,17828,93414,117457
2025-04-16 16:56:31.274,102811,15163,17819,94245,118372
2025-04-16 16:56:31.287,103363,15203,17783,94493,118544
2025-04-16 16:56:31.302,103957,15250,17860,94567,118605
2025-04-16 16:56:31.307,104010,15303,17900,94792,118853
2025-04-16 16:56:31.314,104051,15332,17918,94926,119018
2025-04-16 16:56:31.327,104075,15370,17942,95047,119145
2025-04-16 16:56:31.335,104175,15443,18005,95269,119381
2025-04-16 16:56:31.348,104293,15484,18034,95746,119873
2025-04-16 16:56:31.364,104518,15431,18013,96078,120168
2025-04-16 16:56:31.367,104917,15585,18157,96207,120223
2025-04-16 16:56:31.375,105072,15530,18182,96615,120633
2025-04-16 16:56:31.387,105267,15497,18166,96727,120752
2025-04-16 16:56:31.395,105530,15508,18181,96776,120682
2025-04-16 16:56:31.407,105708,15464,18170,96857,120765
2025-04-16 16:56:31.427,105846,15383,18122,96851,120649
2025-04-16 16:56:31.428,105901,15328,18105,96531,120347
2025-04-16 16:56:31.435,106008,15322,18122,96277,120129
2025-04-16 16:56:31.446,106032,15319,18140,96165,119979
2025-04-16 16:56:31.455,105954,15297,18089,95984,119813
2025-04-16 16:56:31.466,104943,15172,18041,95451,119224
2025-04-16 16:56:31.475,103800,14989,18017,94732,118449
2025-04-16 16:56:31.490,103584,14834,17910,93884,117558
2025-04-16 16:56:31.499,103504,14742,17870,93157,116741
2025-04-16 16:56:31.506,103584,14664,17845,92653,116099
2025-04-16 16:56:31.518,103690,14627,17837,92254,115650
2025-04-16 16:56:31.527,103762,14618,17822,91962,115385
2025-04-16 16:56:31.538,103678,14579,17794,91860,115172
2025-04-16 16:56:31.553,103534,14640,17798,91808,115101
2025-04-16 16:56:31.559,103421,14699,17811,92181,115562
2025-04-16 16:56:31.567,103423,14721,17822,92407,115815
2025-04-16 16:56:31.579,103462,14744,17839,92408,115864
2025-04-16 16:56:31.587,103533,14802,17869,92478,116022
2025-04-16 16:56:31.599,103530,14849,17900,92760,116391
2025-04-16 16:56:31.615,103886,14881,17949,93055,116718
2025-04-16 16:56:31.619,104707,14925,17920,93182,116885
2025-04-16 16:56:31.626,104622,14933,17910,93439,117179
2025-04-16 16:56:31.638,104550,14931,17897,93674,117418
2025-04-16 16:56:31.647,104502,14917,17885,93758,117481
2025-04-16 16:56:31.659,104430,14913,17879,93786,117528
2025-04-16 16:56:31.678,104381,14907,17870,93807,117559
2025-04-16 16:56:31.679,104283,14901,17845,93909,117640
2025-04-16 16:56:31.686,104186,14897,17826,94077,117824
2025-04-16 16:56:31.698,104102,14891,17809,94250,117993
2025-04-16 16:56:31.707,104069,14881,17793,94447,118172
2025-04-16 16:56:31.718,104073,14877,17795,94601,118276
2025-04-16 16:56:31.726,104082,14881,17793,94796,118422
2025-04-16 16:56:31.742,104114,14896,17806,95027,118619
2025-04-16 16:56:31.751,104174,14906,17827,95145,118734
2025-04-16 16:56:31.754,104174,14906,17827,95145,118734
2025-04-16 16:56:31.759,104403,14965,17932,95224,118790
2025-04-16 16:56:31.771,104615,14988,17996,95062,118600
2025-04-16 16:56:31.779,104869,14970,18043,94779,118266
2025-04-16 16:56:31.790,105142,14906,18048,94158,117600
2025-04-16 16:56:31.805,105394,14765,18070,93216,116585
2025-04-16 16:56:31.811,104827,14330,17954,91809,115056
2025-04-16 16:56:31.818,104183,14150,17768,89480,112223
2025-04-16 16:56:31.830,103503,13885,17468,88720,111387
2025-04-16 16:56:31.839,102978,13782,17136,88089,110679
2025-04-16 16:56:31.850,102698,13826,17062,88733,111438
2025-04-16 16:56:31.868,102010,13789,17082,89254,111852
2025-04-16 16:56:31.870,100991,13665,17132,88494,110741
2025-04-16 16:56:31.879,101185,13703,17179,87503,109654
2025-04-16 16:56:31.890,101670,13850,17373,87264,109583
2025-04-16 16:56:31.898,101976,13990,17533,87541,110155
2025-04-16 16:56:31.910,101940,14124,17671,87837,110599
2025-04-16 16:56:31.930,101934,14244,17743,88327,111166
2025-04-16 16:56:31.932,101875,14307,17768,88845,111709
2025-04-16 16:56:31.939,101875,14356,17730,89254,112131
2025-04-16 16:56:31.950,101869,14392,17686,89602,112416
2025-04-16 16:56:31.958,101836,14459,17709,89995,112731
2025-04-16 16:56:31.971,101787,14526,17745,90502,113248
2025-04-16 16:56:31.994,101809,14606,17781,91070,113845
2025-04-16 16:56:31.995,101245,14713,17811,91684,114497
2025-04-16 16:56:32.003,101868,14830,17831,92415,115296
2025-04-16 16:56:32.010,103680,15135,17979,93016,116022
2025-04-16 16:56:32.022,103738,15200,18005,94652,118028
2025-04-16 16:56:32.031,103787,15228,18028,94829,118231
2025-04-16 16:56:32.042,103851,15252,18044,94949,118388
2025-04-16 16:56:32.058,103963,15272,18046,95069,118536
2025-04-16 16:56:32.062,103979,15269,18052,95191,118693
2025-04-16 16:56:32.070,104043,15291,18071,95326,118832
2025-04-16 16:56:32.082,104041,15270,18042,95557,119065
2025-04-16 16:56:32.091,104077,15290,18092,95572,119021
2025-04-16 16:56:32.102,104556,15302,18225,96041,119537
2025-04-16 16:56:32.119,105084,15311,18363,96591,120119
2025-04-16 16:56:32.122,105184,15353,18420,97219,120788
2025-04-16 16:56:32.130,105345,15396,18489,97436,120999
2025-04-16 16:56:32.142,105494,15413,18543,97500,121040
2025-04-16 16:56:32.150,105621,15393,18573,97371,120851
2025-04-16 16:56:32.163,105684,15351,18572,97076,120516
2025-04-16 16:56:32.183,105610,15294,18552,96640,120032
2025-04-16 16:56:32.184,105348,15179,18439,96130,119473
2025-04-16 16:56:32.190,103130,14921,17964,95200,118358
2025-04-16 16:56:32.202,102193,14700,17815,93497,116354
2025-04-16 16:56:32.211,101790,14434,17576,93002,115791
2025-04-16 16:56:32.222,101774,14366,17542,92340,115028
2025-04-16 16:56:32.246,101900,14340,17570,92358,114967
2025-04-16 16:56:32.247,101991,14391,17673,92363,114972
2025-04-16 16:56:32.254,102215,14431,17781,92436,115188
2025-04-16 16:56:32.262,102392,14428,17866,92473,115193
2025-04-16 16:56:32.274,102480,14505,17932,92612,115389
2025-04-16 16:56:32.282,102737,14566,17994,92892,115621
2025-04-16 16:56:32.294,102913,14622,18025,93145,115936
2025-04-16 16:56:32.309,103037,14629,18026,93244,116138
2025-04-16 16:56:32.314,103131,14643,18048,93163,116116
2025-04-16 16:56:32.323,103253,14654,18060,93198,116172
2025-04-16 16:56:32.334,104496,14648,18083,93239,116183
2025-04-16 16:56:32.342,104826,14684,18064,93212,116063
2025-04-16 16:56:32.355,104496,14713,18048,93439,116289
2025-04-16 16:56:32.372,103836,14748,18037,93706,116573
2025-04-16 16:56:32.374,103663,14780,18033,93984,116884
2025-04-16 16:56:32.382,103573,14802,18042,94169,117053
2025-04-16 16:56:32.394,103484,14819,18042,94364,117232
2025-04-16 16:56:32.403,103413,14855,18050,94508,117426
2025-04-16 16:56:32.414,103388,14903,18077,94728,117667
2025-04-16 16:56:32.436,103373,14929,18099,94958,117946
2025-04-16 16:56:32.437,103450,14947,18124,95124,118136
2025-04-16 16:56:32.442,103568,14976,18164,95252,118288
2025-04-16 16:56:32.454,104060,15028,18287,95472,118561
2025-04-16 16:56:32.463,105446,15099,18610,96060,119385
2025-04-16 16:56:32.473,105610,15113,18648,96835,120268
2025-04-16 16:56:32.499,105695,15133,18690,96777,120228
2025-04-16 16:56:32.500,105768,15147,18730,96710,120170
2025-04-16 16:56:32.507,105829,15133,18738,96538,120015
2025-04-16 16:56:32.514,105907,15095,18733,96264,119719
2025-04-16 16:56:32.526,105941,15027,18709,95834,119275
2025-04-16 16:56:32.534,105872,14889,18659,95227,118578
2025-04-16 16:56:32.545,103627,14553,18143,94112,117129
2025-04-16 16:56:32.562,103906,14452,18126,91394,113681
2025-04-16 16:56:32.564,103906,14452,18126,91394,113681
2025-04-16 16:56:32.566,103435,14143,17883,90644,112813
2025-04-16 16:56:32.574,103234,14048,17809,89921,111916
2025-04-16 16:56:32.586,103163,14046,17831,89531,111509
2025-04-16 16:56:32.594,102768,13956,17842,89212,111131
2025-04-16 16:56:32.606,102794,13942,17808,88473,110283
2025-04-16 16:56:32.625,102666,13950,17781,88161,110030
2025-04-16 16:56:32.626,102555,13985,17782,87994,109934
2025-04-16 16:56:32.634,102510,14043,17830,87980,109992
2025-04-16 16:56:32.647,102523,14102,17876,88151,110173
2025-04-16 16:56:32.654,102524,14146,17900,88298,110373
2025-04-16 16:56:32.666,102372,14180,17844,88461,110522
2025-04-16 16:56:32.688,102161,14229,17840,88682,110720
2025-04-16 16:56:32.689,102075,14301,17864,88977,111058
2025-04-16 16:56:32.695,102497,14485,17935,89466,111622
2025-04-16 16:56:32.705,102655,14657,18000,90703,113115
2025-04-16 16:56:32.718,101992,14791,18010,91724,114203
2025-04-16 16:56:32.726,102430,14955,18007,92560,115124
2025-04-16 16:56:32.752,102901,15070,18035,93443,116087
2025-04-16 16:56:32.753,103642,15246,18137,94268,117141
2025-04-16 16:56:32.758,103691,15256,18142,95060,118025
2025-04-16 16:56:32.765,103766,15270,18147,95175,118123
2025-04-16 16:56:32.779,103892,15290,18155,95250,118224
2025-04-16 16:56:32.785,103980,15301,18167,95367,118365
2025-04-16 16:56:32.798,104028,15260,18155,95558,118571
2025-04-16 16:56:32.815,104414,15310,18229,95617,118694
2025-04-16 16:56:32.818,104481,15364,18283,96116,119109
2025-04-16 16:56:32.826,104651,15426,18332,96508,119532
2025-04-16 16:56:32.838,104723,15430,18369,96764,119731
2025-04-16 16:56:32.846,104814,15423,18395,96823,119713
2025-04-16 16:56:32.857,104871,15431,18433,96810,119657
2025-04-16 16:56:32.877,104811,15389,18427,96762,119593
2025-04-16 16:56:32.879,104365,15391,18382,96508,119294
2025-04-16 16:56:32.886,104455,15300,18336,96006,118697
2025-04-16 16:56:32.898,103907,15186,18290,95498,118255
2025-04-16 16:56:32.906,102697,14922,18195,94417,117034
2025-04-16 16:56:32.918,102506,14673,18026,93202,115698
2025-04-16 16:56:32.926,102398,14407,17829,91899,114342
2025-04-16 16:56:32.944,102910,14348,17783,90792,113282
2025-04-16 16:56:32.946,102943,14299,17781,90581,113133
2025-04-16 16:56:32.957,102436,14289,17840,90404,112874
2025-04-16 16:56:32.971,102606,14479,17993,90619,113104
2025-04-16 16:56:32.978,102466,14525,18025,91508,114085
2025-04-16 16:56:32.989,102502,14639,18121,92021,114583
2025-04-16 16:56:33.008,102605,14774,18204,92750,115344
2025-04-16 16:56:33.010,102797,14792,18238,93122,115706
2025-04-16 16:56:33.017,103046,14810,18267,92906,115517
2025-04-16 16:56:33.030,103212,14850,18307,92696,115338
2025-04-16 16:56:33.038,103244,14878,18333,92731,115431
2025-04-16 16:56:33.050,103520,14924,18439,92953,115711
2025-04-16 16:56:33.071,103936,14978,18424,93193,115973
2025-04-16 16:56:33.072,104342,15036,18438,93483,116263
2025-04-16 16:56:33.078,104395,15070,18448,93877,116688
2025-04-16 16:56:33.090,104449,15085,18441,94200,117028
2025-04-16 16:56:33.098,104473,15093,18438,94505,117343
2025-04-16 16:56:33.110,104446,15099,18421,94715,117593
2025-04-16 16:56:33.118,104430,15090,18407,94867,117731
2025-04-16 16:56:33.135,104372,15086,18380,94974,117864
2025-04-16 16:56:33.138,104355,15090,18368,95098,118031
2025-04-16 16:56:33.150,104526,15101,18392,95284,118240
2025-04-16 16:56:33.157,105001,15177,18517,95560,118608
2025-04-16 16:56:33.170,106114,15231,18794,96249,119479
2025-04-16 16:56:33.177,106508,15293,18916,97164,120504
2025-04-16 16:56:33.198,106567,15338,18971,97460,120832
2025-04-16 16:56:33.201,106607,15363,19017,97569,120908
2025-04-16 16:56:33.210,106707,15395,19087,97621,120947
2025-04-16 16:56:33.221,106892,15430,19165,97658,120978
2025-04-16 16:56:33.229,107100,15386,19212,97449,120778
2025-04-16 16:56:33.242,107137,15155,19113,96571,119796
2025-04-16 16:56:33.261,104763,14579,18473,94446,117171
2025-04-16 16:56:33.263,104759,14403,18415,90490,112490
2025-04-16 16:56:33.270,104571,14224,18276,89543,111518
2025-04-16 16:56:33.281,103427,13931,17959,88647,110490
2025-04-16 16:56:33.290,102546,13839,17802,87543,109131
2025-04-16 16:56:33.301,102098,13870,17753,87672,109219
2025-04-16 16:56:33.310,101710,13915,17843,88217,109796
2025-04-16 16:56:33.324,100235,13695,17817,88134,109508
2025-04-16 16:56:33.330,100294,13686,17801,86738,107852
2025-04-16 16:56:33.341,100240,13680,17790,86286,107459
2025-04-16 16:56:33.349,100187,13721,17801,85881,107142
2025-04-16 16:56:33.362,100147,13799,17851,85811,107105
2025-04-16 16:56:33.365,100147,13799,17851,85811,107105
2025-04-16 16:56:33.370,100112,13928,17932,86372,107740
2025-04-16 16:56:33.387,100025,13969,17944,86659,108033
2025-04-16 16:56:33.389,99898,14018,17939,86948,108329
2025-04-16 16:56:33.402,99779,14083,17967,87383,108756
2025-04-16 16:56:33.409,101339,14460,18075,88056,109552
2025-04-16 16:56:33.421,102101,14654,18121,90550,112557
2025-04-16 16:56:33.433,101576,14738,18105,91585,113657
2025-04-16 16:56:33.451,101578,14902,18083,92313,114444
2025-04-16 16:56:33.454,102619,15109,18108,93390,115774
2025-04-16 16:56:33.461,103320,15248,18163,94545,117161
2025-04-16 16:56:33.473,103524,15283,18141,95306,118024
2025-04-16 16:56:33.482,103536,15284,18107,95712,118438
2025-04-16 16:56:33.494,103625,15277,18044,96030,118721
2025-04-16 16:56:33.513,103758,15263,17972,96405,119064
2025-04-16 16:56:33.515,103534,15198,17905,96674,119249
2025-04-16 16:56:33.522,103293,15121,17857,96701,119214
2025-04-16 16:56:33.533,102467,15095,17927,96746,119208
2025-04-16 16:56:33.542,102397,15169,17980,97024,119586
2025-04-16 16:56:33.553,102436,15159,17993,97296,119811
2025-04-16 16:56:33.562,102488,15111,17986,97255,119731
2025-04-16 16:56:33.577,102568,15113,18008,97170,119615
2025-04-16 16:56:33.581,102401,15110,17940,97106,119423
2025-04-16 16:56:33.594,101938,15107,18003,97238,119579
2025-04-16 16:56:33.601,101542,15010,17981,96792,119124
2025-04-16 16:56:33.613,101502,14956,17967,96585,118884
2025-04-16 16:56:33.622,101542,14936,17993,96125,118383
2025-04-16 16:56:33.640,101673,14781,17908,95710,117945
2025-04-16 16:56:33.642,101631,14528,17729,94627,116912
2025-04-16 16:56:33.654,101735,14415,17704,93335,115602
2025-04-16 16:56:33.661,101969,14385,17724,92476,114830
2025-04-16 16:56:33.674,102182,14389,17733,91968,114481
2025-04-16 16:56:33.685,102390,14470,17805,91808,114363
2025-04-16 16:56:33.702,102572,14583,17848,92519,115145
2025-04-16 16:56:33.705,102419,14602,17802,93155,115803
2025-04-16 16:56:33.714,102551,14698,17873,93836,116405
2025-04-16 16:56:33.725,102644,14788,17925,94516,117025
2025-04-16 16:56:33.733,102740,14813,17933,94792,117377
2025-04-16 16:56:33.746,102897,14828,17949,94722,117344
2025-04-16 16:56:33.765,103037,14862,17970,94762,117397
2025-04-16 16:56:33.766,103146,14934,18033,94994,117654
2025-04-16 16:56:33.774,103261,15002,18078,95407,118090
2025-04-16 16:56:33.785,103370,15057,18135,95782,118448
2025-04-16 16:56:33.794,103519,15104,18218,96071,118750
2025-04-16 16:56:33.805,103726,15137,18349,96275,118993
2025-04-16 16:56:33.813,103999,15178,18417,96367,119127
2025-04-16 16:56:33.828,104420,15218,18409,96435,119221
2025-04-16 16:56:33.834,104799,15252,18385,96537,119313
2025-04-16 16:56:33.845,104701,15276,18386,96584,119369
2025-04-16 16:56:33.853,104612,15269,18373,96713,119505
2025-04-16 16:56:33.866,104518,15263,18362,96805,119562
2025-04-16 16:56:33.873,104383,15246,18334,96875,119631
2025-04-16 16:56:33.891,104287,15226,18326,96901,119645
2025-04-16 16:56:33.893,104209,15242,18336,96951,119672
2025-04-16 16:56:33.906,104208,15273,18367,96972,119693
2025-04-16 16:56:33.913,104209,15324,18427,97096,119843
2025-04-16 16:56:33.925,104245,15349,18475,97216,119975
2025-04-16 16:56:33.937,104382,15392,18563,97227,119938
2025-04-16 16:56:33.953,104573,15370,18624,97024,119803
2025-04-16 16:56:33.958,104828,15316,18665,96352,119079
2025-04-16 16:56:33.965,105127,15147,18671,95331,118014
2025-04-16 16:56:33.977,104989,14829,18518,93756,116301
2025-04-16 16:56:33.986,104436,14648,18400,91813,113939
2025-04-16 16:56:33.997,104248,14553,18322,90900,112998
2025-04-16 16:56:34.016,103918,14453,18230,90405,112475
2025-04-16 16:56:34.017,102214,14073,18022,89756,111652
2025-04-16 16:56:34.025,101353,13892,17836,87741,109237
2025-04-16 16:56:34.037,101045,13881,17763,87108,108626
2025-04-16 16:56:34.045,100880,13885,17762,87033,108565
2025-04-16 16:56:34.057,100520,13829,17777,86737,108219
2025-04-16 16:56:34.065,100324,13826,17777,86130,107491
2025-04-16 16:56:34.080,100279,13863,17785,85883,107255
2025-04-16 16:56:34.085,100220,13915,17824,85787,107222
2025-04-16 16:56:34.097,100177,13965,17850,85888,107393
2025-04-16 16:56:34.105,100132,14000,17873,86057,107596
2025-04-16 16:56:34.117,100148,14029,17874,86232,107790
2025-04-16 16:56:34.125,100166,14032,17849,86433,107978
2025-04-16 16:56:34.143,100238,14044,17853,86527,108054
2025-04-16 16:56:34.145,100604,14136,17885,86591,108159
2025-04-16 16:56:34.158,101650,14360,17959,87249,109032
2025-04-16 16:56:34.169,102183,14525,18034,88483,110510
2025-04-16 16:56:34.177,102976,14759,18113,89407,111595
2025-04-16 16:56:34.190,102480,14909,18151,90805,113196
2025-04-16 16:56:34.206,102354,15100,18156,91887,114461
2025-04-16 16:56:34.209,103189,15275,18158,92925,115607
2025-04-16 16:56:34.217,103728,15344,18137,93920,116743
2025-04-16 16:56:34.229,103819,15362,18143,94223,116998
2025-04-16 16:56:34.237,104111,15395,18186,94364,117164
2025-04-16 16:56:34.249,104257,15398,18200,94658,117476
2025-04-16 16:56:34.270,104238,15396,18198,94830,117649
2025-04-16 16:56:34.271,104182,15406,18219,95035,117834
2025-04-16 16:56:34.278,104156,15372,18231,95294,118077
2025-04-16 16:56:34.289,104168,15459,18315,95251,117977
2025-04-16 16:56:34.297,104257,15521,18386,95823,118588
2025-04-16 16:56:34.309,104258,15545,18425,96207,118922
2025-04-16 16:56:34.317,104434,15613,18507,96344,119056
2025-04-16 16:56:34.333,104529,15628,18551,96426,119158
2025-04-16 16:56:34.337,104590,15541,18539,96263,118904
2025-04-16 16:56:34.349,104673,15506,18540,95699,118316
2025-04-16 16:56:34.357,104782,15438,18517,95190,117769
2025-04-16 16:56:34.370,104914,15353,18477,94643,117208
2025-04-16 16:56:34.373,104914,15353,18477,94643,117208
2025-04-16 16:56:34.377,102842,14947,18270,92878,115388
2025-04-16 16:56:34.396,102344,14617,17981,91787,114254
2025-04-16 16:56:34.401,102373,14480,17881,90562,113025
2025-04-16 16:56:34.410,102458,14363,17850,89889,112327
2025-04-16 16:56:34.420,102595,14404,17882,89257,111622
2025-04-16 16:56:34.429,102569,14527,17963,89433,111896
2025-04-16 16:56:34.441,102461,14521,17943,89842,112402
2025-04-16 16:56:34.459,102269,14593,17951,90098,112545
2025-04-16 16:56:34.461,102214,14709,18015,90796,113293
2025-04-16 16:56:34.468,102376,14766,18066,91288,113788
2025-04-16 16:56:34.481,102758,14782,18120,91249,113736
2025-04-16 16:56:34.489,103159,14855,18199,90931,113446
2025-04-16 16:56:34.500,103399,14963,18299,90924,113535
2025-04-16 16:56:34.523,103564,15086,18450,91402,114101
2025-04-16 16:56:34.524,104309,15195,18579,91922,114674
2025-04-16 16:56:34.529,104906,15335,18641,92536,115351
2025-04-16 16:56:34.541,105054,15440,18705,93204,116053
2025-04-16 16:56:34.550,105214,15504,18750,93942,116813
2025-04-16 16:56:34.561,105378,15564,18786,94510,117382
2025-04-16 16:56:34.569,105494,15603,18810,94898,117780
2025-04-16 16:56:34.585,105616,15618,18819,95168,118065
2025-04-16 16:56:34.589,105657,15617,18815,95324,118227
2025-04-16 16:56:34.600,105651,15598,18800,95385,118285
2025-04-16 16:56:34.609,105606,15580,18798,95456,118349
2025-04-16 16:56:34.621,105642,15601,18831,95558,118467
2025-04-16 16:56:34.633,107193,15631,19271,95916,118886
2025-04-16 16:56:34.648,108274,15658,19503,97445,120740
2025-04-16 16:56:34.653,108235,15687,19542,98101,121370
2025-04-16 16:56:34.661,108195,15691,19573,98277,121537
2025-04-16 16:56:34.673,108228,15693,19601,98308,121538
2025-04-16 16:56:34.681,108366,15694,19633,98160,121393
2025-04-16 16:56:34.692,108480,15676,19649,97918,121145
2025-04-16 16:56:34.711,108600,15625,19633,97411,120632
2025-04-16 16:56:34.713,108631,15582,19595,96721,119876
2025-04-16 16:56:34.721,106450,15484,18969,95897,118943
2025-04-16 16:56:34.732,106015,15291,18910,93445,116065
2025-04-16 16:56:34.740,105556,15054,18757,92464,114942
2025-04-16 16:56:34.753,104710,14745,18419,91605,113963
2025-04-16 16:56:34.775,103765,14516,18154,90376,112455
2025-04-16 16:56:34.776,103438,14545,18187,89625,111603
2025-04-16 16:56:34.781,103462,14658,18435,89882,111960
2025-04-16 16:56:34.792,103574,14693,18488,90121,112270
2025-04-16 16:56:34.801,103722,14733,18517,89928,112102
2025-04-16 16:56:34.813,103381,14803,18515,89857,112104
2025-04-16 16:56:34.821,103616,14855,18546,89856,112183
2025-04-16 16:56:34.837,103697,14904,18586,89948,112314
2025-04-16 16:56:34.840,103749,14942,18631,90222,112591
2025-04-16 16:56:34.853,103706,14957,18652,90493,112859
2025-04-16 16:56:34.861,103674,14958,18599,90661,113000
2025-04-16 16:56:34.873,103663,14973,18552,90761,113047
2025-04-16 16:56:34.885,103337,15013,18531,90871,113144
2025-04-16 16:56:34.900,102861,15100,18535,91195,113485
2025-04-16 16:56:34.905,102458,15201,18553,91847,114199
2025-04-16 16:56:34.913,102656,15361,18590,92528,114977
2025-04-16 16:56:34.925,103612,15576,18604,93543,116113
2025-04-16 16:56:34.932,104439,15703,18632,94875,117636
2025-04-16 16:56:34.945,104764,15777,18706,95415,118206
2025-04-16 16:56:34.963,104886,15840,18742,95819,118675
2025-04-16 16:56:34.965,104927,15858,18749,96121,118983
2025-04-16 16:56:34.972,104956,15884,18768,96292,119151
2025-04-16 16:56:34.985,104953,15916,18802,96466,119345
2025-04-16 16:56:34.993,104954,15949,18827,96799,119676
2025-04-16 16:56:35.005,105106,15905,18782,97037,119926
2025-04-16 16:56:35.027,105018,16004,18947,96540,119652
2025-04-16 16:56:35.028,105184,16039,18988,97852,120758
2025-04-16 16:56:35.033,105283,16073,19038,98021,120867
2025-04-16 16:56:35.044,105351,16045,19055,98126,120943
2025-04-16 16:56:35.053,105418,16029,19081,98110,120852
2025-04-16 16:56:35.065,105371,15959,19044,97889,120603
2025-04-16 16:56:35.073,105236,15894,18982,97382,120020
2025-04-16 16:56:35.090,105232,15802,18917,96839,119527
2025-04-16 16:56:35.092,105119,15680,18838,96306,118996
2025-04-16 16:56:35.104,104381,15492,18613,95691,118336
2025-04-16 16:56:35.116,103173,15217,18506,94566,117062
2025-04-16 16:56:35.125,102626,15084,18463,93953,116403
2025-04-16 16:56:35.136,102681,15019,18433,93579,115994
2025-04-16 16:56:35.153,102973,15025,18608,93261,115717
2025-04-16 16:56:35.156,103380,15072,18754,93151,115697
2025-04-16 16:56:35.164,103544,15063,18742,93370,115972
2025-04-16 16:56:35.176,104133,15134,18800,93214,115747
2025-04-16 16:56:35.181,104133,15134,18800,93214,115747
2025-04-16 16:56:35.184,104427,15224,18893,93894,116367
2025-04-16 16:56:35.196,104406,15258,18920,94030,116536
2025-04-16 16:56:35.217,104645,15309,18963,94011,116584
2025-04-16 16:56:35.218,104833,15351,19010,94019,116647
2025-04-16 16:56:35.225,105101,15430,19013,94164,116839
2025-04-16 16:56:35.237,105312,15506,19014,94442,117154
2025-04-16 16:56:35.244,105375,15581,19060,94816,117547
2025-04-16 16:56:35.256,105439,15635,19091,95295,118059
2025-04-16 16:56:35.265,105513,15683,19124,95787,118580
2025-04-16 16:56:35.282,105631,15730,19156,96262,119078
2025-04-16 16:56:35.284,105802,15762,19191,96750,119603
2025-04-16 16:56:35.296,106732,15781,19506,97177,120072
2025-04-16 16:56:35.304,109239,15800,20125,98303,121524
2025-04-16 16:56:35.316,110143,15804,20308,99916,123385
2025-04-16 16:56:35.328,110167,15803,20331,100323,123783
2025-04-16 16:56:35.349,110198,15807,20360,100396,123878
2025-04-16 16:56:35.351,110235,15843,20395,100470,123939
2025-04-16 16:56:35.357,110249,15855,20418,100626,124063
2025-04-16 16:56:35.369,110300,15888,20461,100668,124090
2025-04-16 16:56:35.376,110396,15941,20535,100736,124137
2025-04-16 16:56:35.388,110492,15973,20598,100749,124164
2025-04-16 16:56:35.396,110584,15963,20630,100534,123955
2025-04-16 16:56:35.416,110701,15960,20658,100117,123532
2025-04-16 16:56:35.417,110762,15925,20643,99637,123041
2025-04-16 16:56:35.429,110502,15848,20528,99094,122482
2025-04-16 16:56:35.436,108458,15678,19948,98059,121229
2025-04-16 16:56:35.448,104987,15373,19243,95392,117853
2025-04-16 16:56:35.457,105013,15190,19155,92861,114959
2025-04-16 16:56:35.479,104344,14968,18909,92068,114096
2025-04-16 16:56:35.480,103845,14820,18641,91287,113207
2025-04-16 16:56:35.488,103572,14905,18668,90918,112782
2025-04-16 16:56:35.496,103508,14982,18773,91498,113474
2025-04-16 16:56:35.508,103603,15039,18928,91659,113612
2025-04-16 16:56:35.515,103212,15107,18950,91475,113530
2025-04-16 16:56:35.542,103674,15143,18939,91272,113393
2025-04-16 16:56:35.544,103750,15204,18967,91034,113239
2025-04-16 16:56:35.548,103743,15278,19015,91127,113421
2025-04-16 16:56:35.556,103728,15345,19069,91476,113823
2025-04-16 16:56:35.569,103715,15398,19098,91855,114222
2025-04-16 16:56:35.581,103633,15429,19086,92218,114574
2025-04-16 16:56:35.588,103530,15454,19027,92446,114817
2025-04-16 16:56:35.605,103283,15475,18979,92712,115039
2025-04-16 16:56:35.608,103054,15523,18948,93044,115347
2025-04-16 16:56:35.620,103123,15619,18996,93574,115878
2025-04-16 16:56:35.628,103400,15712,19021,94266,116623
2025-04-16 16:56:35.640,104160,15885,19086,94800,117240
2025-04-16 16:56:35.648,105100,16040,19178,96099,119023
2025-04-16 16:56:35.668,105299,16090,19224,96540,119392
2025-04-16 16:56:35.670,105485,16143,19269,96776,119656
2025-04-16 16:56:35.680,105628,16192,19291,97103,120002
2025-04-16 16:56:35.688,105679,16207,19313,97351,120320
2025-04-16 16:56:35.701,105775,16198,19323,97584,120566
2025-04-16 16:56:35.708,105693,16186,19303,97809,120755
2025-04-16 16:56:35.731,105657,16180,19307,97982,120903
2025-04-16 16:56:35.732,105841,16254,19413,98078,120964
2025-04-16 16:56:35.740,105654,16155,19345,97331,120107
2025-04-16 16:56:35.748,105831,16236,19418,98267,121119
2025-04-16 16:56:35.760,105909,16204,19416,98348,121219
2025-04-16 16:56:35.768,105983,16171,19428,98013,120854
2025-04-16 16:56:35.794,106088,16149,19437,97730,120513
2025-04-16 16:56:35.795,106173,16100,19408,97378,120145
2025-04-16 16:56:35.800,106267,16041,19373,96981,119740
2025-04-16 16:56:35.809,106231,16004,19345,96699,119462
2025-04-16 16:56:35.821,105493,15935,19164,96403,119184
2025-04-16 16:56:35.828,104502,15796,19097,95602,118277
2025-04-16 16:56:35.840,103601,15563,18978,95002,117659
2025-04-16 16:56:35.858,103578,15412,18878,94045,116627
2025-04-16 16:56:35.860,103760,15334,18869,93272,115831
2025-04-16 16:56:35.872,103936,15312,18883,92824,115371
2025-04-16 16:56:35.880,104068,15388,18940,92620,115168
2025-04-16 16:56:35.892,103964,15416,18941,93024,115621
2025-04-16 16:56:35.900,103836,15379,18900,93035,115635
2025-04-16 16:56:35.922,103823,15380,18896,92990,115524
2025-04-16 16:56:35.923,103940,15444,18942,93002,115565
2025-04-16 16:56:35.932,104084,15470,18969,93159,115756
2025-04-16 16:56:35.940,104253,15519,19039,93189,115797
2025-04-16 16:56:35.953,104509,15582,19170,93341,116008
2025-04-16 16:56:35.960,104901,15662,19277,93567,116288
2025-04-16 16:56:35.985,105852,15760,19275,93924,116703
2025-04-16 16:56:35.986,106018,15845,19333,94247,117079
2025-04-16 16:56:35.987,106018,15845,19333,94247,117079
2025-04-16 16:56:35.992,106160,15958,19401,95307,118204
2025-04-16 16:56:36.000,106230,16004,19426,95714,118646
2025-04-16 16:56:36.012,106271,16029,19442,96052,119031
2025-04-16 16:56:36.020,106291,16049,19451,96375,119363
2025-04-16 16:56:36.032,106304,16052,19458,96615,119601
2025-04-16 16:56:36.049,106320,16059,19453,96815,119802
2025-04-16 16:56:36.052,106354,16059,19453,97035,120013
2025-04-16 16:56:36.060,106444,16068,19484,97217,120225
2025-04-16 16:56:36.072,107746,16096,19871,97476,120496
2025-04-16 16:56:36.083,108902,16136,20121,98625,121943
2025-04-16 16:56:36.092,108915,16164,20165,99130,122457
2025-04-16 16:56:36.112,108977,16196,20218,99155,122466
2025-04-16 16:56:36.113,109053,16201,20244,99068,122379
2025-04-16 16:56:36.123,109121,16172,20247,98821,122108
2025-04-16 16:56:36.131,109199,16144,20240,98474,121727
2025-04-16 16:56:36.144,109229,16098,20211,98089,121302
2025-04-16 16:56:36.152,109028,16035,20116,97675,120842
2025-04-16 16:56:36.175,107575,15843,19794,96913,119924
2025-04-16 16:56:36.176,105529,15630,19510,95003,117505
2025-04-16 16:56:36.184,105387,15434,19448,93147,115483
2025-04-16 16:56:36.191,104957,15241,19195,92350,114586
2025-04-16 16:56:36.203,104524,15130,18982,91675,113849
2025-04-16 16:56:36.212,104232,15152,18997,91499,113609
2025-04-16 16:56:36.237,104244,15169,19074,91637,113716
2025-04-16 16:56:36.239,104255,15168,19119,91571,113629
2025-04-16 16:56:36.243,104261,15136,19087,91160,113239
2025-04-16 16:56:36.252,104283,15141,19090,90656,112741
2025-04-16 16:56:36.264,104270,15194,19164,90367,112541
2025-04-16 16:56:36.273,104291,15277,19243,90498,112747
2025-04-16 16:56:36.284,104192,15350,19275,90885,113193
2025-04-16 16:56:36.300,103995,15430,19300,91326,113670
2025-04-16 16:56:36.304,103938,15489,19312,91823,114192
2025-04-16 16:56:36.316,104028,15574,19319,92387,114734
2025-04-16 16:56:36.323,103886,15627,19287,92913,115319
2025-04-16 16:56:36.335,103732,15723,19226,93456,115844
2025-04-16 16:56:36.344,104098,15873,19244,94002,116435
2025-04-16 16:56:36.364,104741,16073,19373,94826,117343
2025-04-16 16:56:36.365,105124,16196,19450,95909,118692
2025-04-16 16:56:36.376,105445,16281,19510,96517,119410
2025-04-16 16:56:36.384,105615,16305,19526,96822,119759
2025-04-16 16:56:36.396,105766,16344,19554,96932,119902
2025-04-16 16:56:36.404,105849,16366,19566,97154,120162
2025-04-16 16:56:36.427,105849,16366,19566,97154,120162
2025-04-16 16:56:36.429,105873,16367,19562,97384,120387
2025-04-16 16:56:36.437,105815,16340,19529,97562,120564
2025-04-16 16:56:36.444,105752,16332,19518,97640,120617
2025-04-16 16:56:36.456,105662,16320,19514,97787,120739
2025-04-16 16:56:36.464,105732,16202,19446,97923,120883
2025-04-16 16:56:36.476,106353,16418,19659,98064,121081
2025-04-16 16:56:36.490,106480,16399,19669,98711,121697
2025-04-16 16:56:36.496,106515,16326,19648,98460,121359
2025-04-16 16:56:36.504,106590,16308,19658,98062,120882
2025-04-16 16:56:36.516,106643,16282,19653,97837,120636
2025-04-16 16:56:36.524,106679,16251,19630,97523,120392
2025-04-16 16:56:36.536,106726,16242,19628,97423,120294
2025-04-16 16:56:36.553,106593,16177,19572,97377,120273
2025-04-16 16:56:36.556,105679,16010,19339,96953,119819
2025-04-16 16:56:36.568,104900,15834,19211,95854,118612
2025-04-16 16:56:36.576,103999,15657,19147,95107,117827
2025-04-16 16:56:36.588,103856,15598,19189,94595,117253
2025-04-16 16:56:36.591,103856,15598,19189,94595,117253
2025-04-16 16:56:36.596,104938,15713,19576,94161,116946
2025-04-16 16:56:36.616,105410,15714,19604,94336,117255
2025-04-16 16:56:36.617,105975,15741,19576,94515,117303
2025-04-16 16:56:36.627,106457,15773,19649,94773,117433
2025-04-16 16:56:36.635,106503,15850,19707,94902,117611
2025-04-16 16:56:36.647,106313,15916,19721,95224,117938
2025-04-16 16:56:36.656,106196,16002,19732,95435,118216
2025-04-16 16:56:36.680,106221,16064,19787,95678,118520
2025-04-16 16:56:36.681,106303,16133,19823,96079,118979
2025-04-16 16:56:36.687,106353,16177,19842,96559,119481
2025-04-16 16:56:36.696,106418,16197,19848,96946,119852
2025-04-16 16:56:36.708,106524,16204,19856,97144,120092
2025-04-16 16:56:36.716,106654,16205,19857,97275,120259
2025-04-16 16:56:36.727,106747,16208,19860,97344,120369
2025-04-16 16:56:36.743,106781,16198,19850,97399,120433
2025-04-16 16:56:36.748,106796,16188,19831,97460,120529
2025-04-16 16:56:36.755,106779,16156,19799,97466,120524
2025-04-16 16:56:36.767,106744,16133,19775,97476,120538
2025-04-16 16:56:36.780,106670,16099,19739,97484,120511
2025-04-16 16:56:36.787,106616,16080,19718,97440,120464
2025-04-16 16:56:36.807,106539,16091,19719,97459,120470
2025-04-16 16:56:36.808,106460,16101,19721,97530,120519
2025-04-16 16:56:36.820,106450,16134,19761,97571,120525
2025-04-16 16:56:36.828,106446,16141,19792,97580,120507
2025-04-16 16:56:36.839,106538,16137,19836,97350,120259
2025-04-16 16:56:36.848,106611,16081,19835,96946,119798
2025-04-16 16:56:36.870,106666,15994,19803,96340,119137
2025-04-16 16:56:36.871,106655,15878,19764,95543,118270
2025-04-16 16:56:36.879,106390,15597,19633,94638,117194
