Timestamp,PPG1,PPG2,PPG3,PPG4,PPG5
2025-04-16 15:47:19.831,38,27,44,38,40
2025-04-16 15:47:19.881,43,36,57,35,47
2025-04-16 15:47:19.885,37,43,44,46,49
2025-04-16 15:47:19.886,33,45,46,45,46
2025-04-16 15:47:19.887,28,42,47,38,48
2025-04-16 15:47:19.889,36,39,42,42,28
2025-04-16 15:47:19.890,0,0,19,32,18
2025-04-16 15:47:19.891,0,0,12,32,20
2025-04-16 15:47:19.893,25,32,34,49,38
2025-04-16 15:47:19.894,30,14,37,59,42
2025-04-16 15:47:19.895,29,43,20,17,27
2025-04-16 15:47:19.897,35,22,28,43,34
2025-04-16 15:47:19.898,24,24,36,44,38
2025-04-16 15:47:19.899,49,30,20,60,37
2025-04-16 15:47:19.901,23,36,34,42,33
2025-04-16 15:47:19.902,39,33,33,43,42
2025-04-16 15:47:19.904,33,27,34,37,21
2025-04-16 15:47:19.910,31,29,27,40,45
2025-04-16 15:47:19.918,32,31,32,52,16
2025-04-16 15:47:19.947,29,27,37,33,29
2025-04-16 15:47:19.948,23,39,30,50,49
2025-04-16 15:47:19.950,23,39,30,50,49
2025-04-16 15:47:19.951,23,39,30,50,49
2025-04-16 15:47:19.952,23,39,30,50,49
2025-04-16 15:47:19.953,23,39,30,50,49
2025-04-16 15:47:19.954,23,39,30,50,49
2025-04-16 15:47:19.955,23,39,30,50,49
2025-04-16 15:47:19.958,23,39,30,50,49
2025-04-16 15:47:19.959,16,35,26,35,31
2025-04-16 15:47:19.965,24,31,35,34,16
2025-04-16 15:47:19.978,26,27,40,26,22
2025-04-16 15:47:19.986,22,25,32,18,39
2025-04-16 15:47:20.015,0,16,35,26,47
2025-04-16 15:47:20.017,18,27,25,41,10
2025-04-16 15:47:20.018,34,23,28,18,42
2025-04-16 15:47:20.030,18,21,30,28,22
2025-04-16 15:47:20.038,43,10,29,29,40
2025-04-16 15:47:20.050,15,14,28,24,38
2025-04-16 15:47:20.058,0,24,36,22,22
2025-04-16 15:47:20.083,0,15,24,27,24
2025-04-16 15:47:20.085,0,35,38,31,31
2025-04-16 15:47:20.091,35,24,35,32,12
2025-04-16 15:47:20.098,122,24,27,27,11
2025-04-16 15:47:20.110,93,16,19,35,24
2025-04-16 15:47:20.118,159,8,24,40,13
2025-04-16 15:47:20.130,65,18,16,28,26
2025-04-16 15:47:20.151,0,33,24,18,30
2025-04-16 15:47:20.152,0,20,13,26,10
2025-04-16 15:47:20.153,0,20,13,26,10
2025-04-16 15:47:20.159,0,0,31,33,26
2025-04-16 15:47:20.170,0,0,22,35,18
2025-04-16 15:47:20.178,0,0,13,34,21
2025-04-16 15:47:20.190,0,0,22,26,26
2025-04-16 15:47:20.199,0,50,30,20,25
2025-04-16 15:47:20.219,0,164,0,24,27
2025-04-16 15:47:20.220,0,101,25,28,19
2025-04-16 15:47:20.230,0,124,3,23,25
2025-04-16 15:47:20.238,0,44,14,33,25
2025-04-16 15:47:20.250,12,0,40,23,14
2025-04-16 15:47:20.258,20,0,13,29,25
2025-04-16 15:47:20.285,48,0,0,28,26
2025-04-16 15:47:20.286,47,0,0,27,22
2025-04-16 15:47:20.290,51,0,0,38,13
2025-04-16 15:47:20.298,45,0,0,29,27
2025-04-16 15:47:20.310,57,0,42,31,21
2025-04-16 15:47:20.321,63,0,68,30,9
2025-04-16 15:47:20.330,70,0,185,20,18
2025-04-16 15:47:20.349,64,0,78,30,15
2025-04-16 15:47:20.350,63,0,69,18,15
2025-04-16 15:47:20.353,63,0,69,18,15
2025-04-16 15:47:20.362,69,19,0,14,18
2025-04-16 15:47:20.370,57,36,0,11,22
2025-04-16 15:47:20.381,54,42,0,21,18
2025-04-16 15:47:20.390,66,47,0,17,13
2025-04-16 15:47:20.414,57,56,0,21,30
2025-04-16 15:47:20.416,63,58,0,16,28
2025-04-16 15:47:20.422,60,63,0,11,30
2025-04-16 15:47:20.430,71,54,0,11,25
2025-04-16 15:47:20.442,55,65,0,0,15
2025-04-16 15:47:20.450,51,70,0,10,14
2025-04-16 15:47:20.463,66,62,0,29,16
2025-04-16 15:47:20.479,63,57,8,13,25
2025-04-16 15:47:20.482,61,62,31,25,6
2025-04-16 15:47:20.490,56,65,38,1,21
2025-04-16 15:47:20.502,59,57,46,0,17
2025-04-16 15:47:20.510,60,70,46,0,19
2025-04-16 15:47:20.522,67,60,51,0,8
2025-04-16 15:47:20.544,71,56,56,49,10
2025-04-16 15:47:20.546,77,52,61,153,16
2025-04-16 15:47:20.554,61,59,66,89,0
2025-04-16 15:47:20.561,58,57,53,116,7
2025-04-16 15:47:20.574,54,66,60,45,0
2025-04-16 15:47:20.581,67,57,54,0,4
2025-04-16 15:47:20.609,46,64,67,0,44
2025-04-16 15:47:20.610,60,66,59,0,4
2025-04-16 15:47:20.614,57,56,64,0,0
2025-04-16 15:47:20.622,46,64,59,0,0
2025-04-16 15:47:20.634,63,67,59,0,0
2025-04-16 15:47:20.642,55,75,54,0,0
2025-04-16 15:47:20.653,63,68,46,0,24
2025-04-16 15:47:20.674,48,53,51,0,83
2025-04-16 15:47:20.675,47,55,54,0,182
2025-04-16 15:47:20.682,55,62,54,0,74
2025-04-16 15:47:20.694,44,57,55,0,67
2025-04-16 15:47:20.701,45,42,56,20,0
2025-04-16 15:47:20.714,52,58,57,25,0
2025-04-16 15:47:20.722,65,50,45,41,0
2025-04-16 15:47:20.738,66,53,72,40,0
2025-04-16 15:47:20.742,65,48,60,46,0
2025-04-16 15:47:20.754,65,49,59,50,0
2025-04-16 15:47:20.762,60,51,69,53,0
2025-04-16 15:47:20.774,58,52,64,52,0
2025-04-16 15:47:20.781,34,48,64,58,0
2025-04-16 15:47:20.805,62,49,52,62,0
2025-04-16 15:47:20.806,59,42,50,58,0
2025-04-16 15:47:20.815,54,62,60,52,0
2025-04-16 15:47:20.822,44,59,63,61,0
2025-04-16 15:47:20.834,48,47,55,55,19
2025-04-16 15:47:20.846,57,31,50,64,27
2025-04-16 15:47:20.854,54,50,56,52,41
2025-04-16 15:47:20.874,62,60,46,58,38
2025-04-16 15:47:20.876,46,54,49,56,39
2025-04-16 15:47:20.886,39,57,53,48,49
2025-04-16 15:47:20.893,44,61,60,65,61
2025-04-16 15:47:20.906,48,55,43,51,50
2025-04-16 15:47:20.914,43,36,58,53,46
2025-04-16 15:47:20.939,56,39,50,63,48
2025-04-16 15:47:20.941,51,48,58,58,49
2025-04-16 15:47:20.946,46,48,60,57,55
2025-04-16 15:47:20.954,60,53,49,44,48
2025-04-16 15:47:20.965,73,38,43,55,57
2025-04-16 15:47:20.974,48,56,46,66,46
2025-04-16 15:47:20.986,62,67,46,64,54
2025-04-16 15:47:21.008,56,52,42,65,43
2025-04-16 15:47:21.010,21,36,73,57,50
2025-04-16 15:47:21.014,59,69,58,53,52
2025-04-16 15:47:21.026,41,61,51,54,45
2025-04-16 15:47:21.034,66,52,56,57,37
2025-04-16 15:47:21.046,59,78,43,52,56
2025-04-16 15:47:21.054,77,43,51,61,48
2025-04-16 15:47:21.076,35,44,75,48,53
2025-04-16 15:47:21.078,60,47,63,57,40
2025-04-16 15:47:21.087,44,39,63,38,47
2025-04-16 15:47:21.098,50,31,56,60,51
2025-04-16 15:47:21.105,36,71,41,49,58
2025-04-16 15:47:21.118,39,66,54,51,54
2025-04-16 15:47:21.125,41,62,44,47,59
2025-04-16 15:47:21.145,44,56,46,49,60
2025-04-16 15:47:21.147,46,28,51,51,54
2025-04-16 15:47:21.157,63,66,46,45,49
2025-04-16 15:47:21.159,63,66,46,45,49
2025-04-16 15:47:21.165,26,60,47,47,57
2025-04-16 15:47:21.178,33,58,62,35,53
2025-04-16 15:47:21.185,48,40,56,50,48
2025-04-16 15:47:21.213,64,49,43,49,45
2025-04-16 15:47:21.214,36,48,75,47,38
2025-04-16 15:47:21.217,54,57,44,54,35
2025-04-16 15:47:21.225,53,22,63,46,49
2025-04-16 15:47:21.238,30,48,66,31,53
2025-04-16 15:47:21.246,47,58,31,40,39
2025-04-16 15:47:21.258,25,31,82,32,42
2025-04-16 15:47:21.281,50,33,64,38,42
2025-04-16 15:47:21.283,46,54,46,61,51
2025-04-16 15:47:21.286,37,49,46,46,46
2025-04-16 15:47:21.297,26,56,61,46,45
2025-04-16 15:47:21.306,49,46,35,46,64
2025-04-16 15:47:21.317,42,71,40,69,40
2025-04-16 15:47:21.325,59,46,51,33,52
2025-04-16 15:47:21.351,34,46,63,25,31
2025-04-16 15:47:21.353,42,40,33,51,38
2025-04-16 15:47:21.357,34,47,57,22,31
2025-04-16 15:47:21.370,50,50,59,50,41
2025-04-16 15:47:21.378,52,34,47,52,45
2025-04-16 15:47:21.389,34,45,33,47,31
2025-04-16 15:47:21.398,24,62,41,49,45
2025-04-16 15:47:21.427,48,49,57,27,42
2025-04-16 15:47:21.429,42,48,66,36,39
2025-04-16 15:47:21.431,44,54,60,55,58
2025-04-16 15:47:21.438,22,46,55,47,28
2025-04-16 15:47:21.449,29,52,45,47,68
2025-04-16 15:47:21.458,33,58,34,56,35
2025-04-16 15:47:21.470,56,51,47,39,61
2025-04-16 15:47:21.493,33,30,70,32,33
2025-04-16 15:47:21.495,55,37,56,52,47
2025-04-16 15:47:21.497,42,29,35,59,53
2025-04-16 15:47:21.510,45,50,41,63,26
2025-04-16 15:47:21.518,37,40,60,52,38
2025-04-16 15:47:21.530,34,40,47,35,66
2025-04-16 15:47:21.537,39,23,61,26,43
2025-04-16 15:47:21.560,41,34,35,45,30
2025-04-16 15:47:21.561,43,33,64,23,47
2025-04-16 15:47:21.569,27,23,30,66,32
2025-04-16 15:47:21.578,36,54,41,52,41
2025-04-16 15:47:21.590,33,52,33,42,39
2025-04-16 15:47:21.597,37,38,40,17,42
2025-04-16 15:47:21.609,47,41,50,46,31
2025-04-16 15:47:21.632,26,53,56,42,41
2025-04-16 15:47:21.634,29,27,39,20,68
2025-04-16 15:47:21.641,49,49,40,31,63
2025-04-16 15:47:21.649,31,35,54,32,32
2025-04-16 15:47:21.662,37,38,21,46,45
2025-04-16 15:47:21.669,24,31,39,42,27
2025-04-16 15:47:21.701,39,53,48,48,63
2025-04-16 15:47:21.703,35,32,22,49,59
2025-04-16 15:47:21.704,24,39,41,32,34
2025-04-16 15:47:21.710,25,32,46,52,37
2025-04-16 15:47:21.721,33,30,34,31,35
2025-04-16 15:47:21.729,37,42,53,58,68
2025-04-16 15:47:21.741,30,44,37,51,45
2025-04-16 15:47:21.749,32,19,38,51,19
2025-04-16 15:47:21.769,26,35,52,40,15
2025-04-16 15:47:21.770,39,38,42,48,66
2025-04-16 15:47:21.781,35,42,40,61,35
2025-04-16 15:47:21.790,35,29,36,44,29
2025-04-16 15:47:21.801,31,36,52,42,40
2025-04-16 15:47:21.809,23,31,17,36,30
2025-04-16 15:47:21.837,35,35,37,49,33
2025-04-16 15:47:21.838,31,28,38,42,49
2025-04-16 15:47:21.841,32,42,38,56,46
2025-04-16 15:47:21.849,38,34,26,33,31
2025-04-16 15:47:21.861,28,33,22,45,36
2025-04-16 15:47:21.870,30,28,26,33,26
2025-04-16 15:47:21.881,39,28,24,24,32
2025-04-16 15:47:21.903,32,30,26,46,33
2025-04-16 15:47:21.905,39,35,18,50,37
2025-04-16 15:47:21.914,33,38,29,23,31
2025-04-16 15:47:21.921,24,32,37,28,31
2025-04-16 15:47:21.933,46,30,28,51,17
2025-04-16 15:47:21.942,19,24,38,30,32
2025-04-16 15:47:21.973,32,27,29,52,27
2025-04-16 15:47:21.974,19,27,28,57,35
2025-04-16 15:47:21.976,19,27,28,57,35
2025-04-16 15:47:21.977,30,37,25,52,34
2025-04-16 15:47:21.982,21,25,19,56,42
2025-04-16 15:47:21.993,24,32,36,34,48
2025-04-16 15:47:22.002,22,39,26,33,36
2025-04-16 15:47:22.014,27,33,37,40,35
2025-04-16 15:47:22.021,19,29,20,32,36
2025-04-16 15:47:22.043,22,25,29,38,25
2025-04-16 15:47:22.045,19,18,28,32,36
2025-04-16 15:47:22.053,24,34,31,37,45
2025-04-16 15:47:22.062,7,19,27,33,31
2025-04-16 15:47:22.074,14,35,31,37,43
2025-04-16 15:47:22.081,17,32,31,25,35
2025-04-16 15:47:22.112,9,23,31,39,30
2025-04-16 15:47:22.113,45,12,20,34,39
2025-04-16 15:47:22.115,13,26,33,23,32
2025-04-16 15:47:22.122,0,18,27,34,36
2025-04-16 15:47:22.134,0,17,31,13,28
2025-04-16 15:47:22.141,0,25,33,22,31
2025-04-16 15:47:22.152,2,22,32,22,19
2025-04-16 15:47:22.180,98,22,25,26,24
2025-04-16 15:47:22.182,94,13,19,34,21
2025-04-16 15:47:22.184,187,0,20,32,9
2025-04-16 15:47:22.193,108,14,18,20,20
2025-04-16 15:47:22.204,22,18,21,39,22
2025-04-16 15:47:22.213,0,20,19,31,14
2025-04-16 15:47:22.225,0,47,15,22,25
2025-04-16 15:47:22.247,0,21,19,31,30
2025-04-16 15:47:22.249,0,0,29,35,22
2025-04-16 15:47:22.254,0,0,24,21,34
2025-04-16 15:47:22.265,0,0,24,20,31
2025-04-16 15:47:22.273,0,0,32,22,25
2025-04-16 15:47:22.286,0,99,22,31,25
2025-04-16 15:47:22.293,0,106,17,20,22
2025-04-16 15:47:22.316,0,213,5,21,22
2025-04-16 15:47:22.318,0,105,9,36,33
2025-04-16 15:47:22.325,11,0,34,25,22
2025-04-16 15:47:22.333,18,0,14,33,20
2025-04-16 15:47:22.345,34,0,33,23,23
2025-04-16 15:47:22.353,49,0,5,32,35
2025-04-16 15:47:22.365,48,0,0,33,15
2025-04-16 15:47:22.383,47,0,0,33,27
2025-04-16 15:47:22.385,59,0,0,35,25
2025-04-16 15:47:22.393,58,0,11,18,23
2025-04-16 15:47:22.405,58,0,152,28,26
2025-04-16 15:47:22.413,59,0,128,20,18
2025-04-16 15:47:22.425,66,0,146,27,15
2025-04-16 15:47:22.449,65,0,53,24,23
2025-04-16 15:47:22.451,57,10,0,13,24
2025-04-16 15:47:22.457,65,20,0,21,13
2025-04-16 15:47:22.464,62,43,0,13,29
2025-04-16 15:47:22.477,53,43,0,31,28
2025-04-16 15:47:22.484,66,50,0,12,25
2025-04-16 15:47:22.497,61,48,0,14,29
2025-04-16 15:47:22.516,65,62,0,17,21
2025-04-16 15:47:22.518,61,54,0,18,20
2025-04-16 15:47:22.526,66,66,0,0,27
2025-04-16 15:47:22.537,67,65,0,6,5
2025-04-16 15:47:22.545,60,62,0,24,23
2025-04-16 15:47:22.556,53,74,3,9,14
2025-04-16 15:47:22.582,56,55,15,43,12
2025-04-16 15:47:22.583,64,66,31,6,7
2025-04-16 15:47:22.585,66,61,39,0,7
2025-04-16 15:47:22.597,66,63,48,0,14
2025-04-16 15:47:22.605,67,49,48,0,18
2025-04-16 15:47:22.617,70,59,52,16,20
2025-04-16 15:47:22.624,82,58,64,93,17
2025-04-16 15:47:22.648,53,57,58,85,16
2025-04-16 15:47:22.649,53,59,58,163,4
2025-04-16 15:47:22.658,69,57,64,70,0
2025-04-16 15:47:22.664,55,64,63,4,0
2025-04-16 15:47:22.677,51,52,58,0,19
2025-04-16 15:47:22.685,49,56,61,0,7
2025-04-16 15:47:22.697,48,60,64,0,30
2025-04-16 15:47:22.714,50,65,58,0,6
2025-04-16 15:47:22.717,51,62,64,0,0
2025-04-16 15:47:22.725,52,59,64,0,0
2025-04-16 15:47:22.737,57,72,59,0,0
2025-04-16 15:47:22.749,53,71,58,0,32
2025-04-16 15:47:22.757,52,76,56,0,125
2025-04-16 15:47:22.779,52,58,62,0,80
2025-04-16 15:47:22.780,61,61,61,0,136
2025-04-16 15:47:22.789,58,59,66,0,61
2025-04-16 15:47:22.797,55,52,55,18,0
2025-04-16 15:47:22.809,60,69,58,36,0
2025-04-16 15:47:22.816,44,48,49,37,0
2025-04-16 15:47:22.843,33,49,71,41,0
2025-04-16 15:47:22.844,58,61,59,55,0
2025-04-16 15:47:22.849,55,58,60,55,0
2025-04-16 15:47:22.857,58,51,68,47,0
2025-04-16 15:47:22.868,76,57,56,57,0
2025-04-16 15:47:22.876,53,61,60,63,0
2025-04-16 15:47:22.889,66,56,49,46,0
2025-04-16 15:47:22.907,59,40,50,62,0
2025-04-16 15:47:22.909,52,52,52,62,0
2025-04-16 15:47:22.917,64,55,44,58,6
2025-04-16 15:47:22.929,57,46,38,58,14
2025-04-16 15:47:22.936,46,62,59,53,32
2025-04-16 15:47:22.949,41,61,51,58,32
2025-04-16 15:47:22.956,54,57,50,52,43
2025-04-16 15:47:22.975,59,51,47,61,50
2025-04-16 15:47:22.976,59,51,47,61,50
2025-04-16 15:47:22.981,43,41,55,51,60
2025-04-16 15:47:22.988,56,44,49,58,55
2025-04-16 15:47:23.001,41,39,54,41,53
2025-04-16 15:47:23.009,33,57,52,64,58
2025-04-16 15:47:23.021,70,38,42,61,52
2025-04-16 15:47:23.042,67,37,55,58,60
2025-04-16 15:47:23.043,40,75,40,50,51
2025-04-16 15:47:23.048,54,56,36,50,57
2025-04-16 15:47:23.061,74,24,45,59,51
2025-04-16 15:47:23.068,65,54,44,58,59
2025-04-16 15:47:23.080,73,44,49,69,52
2025-04-16 15:47:23.088,54,35,52,54,48
2025-04-16 15:47:23.110,26,59,67,45,48
2025-04-16 15:47:23.111,44,57,33,65,43
2025-04-16 15:47:23.121,49,68,38,48,59
2025-04-16 15:47:23.128,66,48,37,39,56
2025-04-16 15:47:23.140,65,42,41,62,46
2025-04-16 15:47:23.149,66,32,57,57,52
2025-04-16 15:47:23.175,52,70,41,59,40
2025-04-16 15:47:23.177,35,52,66,56,56
2025-04-16 15:47:23.181,57,40,39,54,54
2025-04-16 15:47:23.188,51,66,36,54,50
2025-04-16 15:47:23.201,62,38,39,55,58
2025-04-16 15:47:23.209,64,47,38,49,54
2025-04-16 15:47:23.220,44,41,48,62,61
2025-04-16 15:47:23.239,54,49,63,53,54
2025-04-16 15:47:23.241,31,59,64,46,46
2025-04-16 15:47:23.252,44,55,40,47,59
2025-04-16 15:47:23.260,71,65,33,62,45
2025-04-16 15:47:23.273,48,51,41,42,39
2025-04-16 15:47:23.280,61,53,29,49,52
2025-04-16 15:47:23.305,62,47,47,44,38
2025-04-16 15:47:23.307,30,67,36,61,43
2025-04-16 15:47:23.313,40,53,58,49,51
2025-04-16 15:47:23.321,29,33,59,23,53
2025-04-16 15:47:23.332,47,50,42,50,44
2025-04-16 15:47:23.341,72,36,31,64,40
2025-04-16 15:47:23.352,54,38,46,28,45
2025-04-16 15:47:23.370,62,56,33,56,42
2025-04-16 15:47:23.372,45,42,54,37,47
2025-04-16 15:47:23.381,39,35,67,29,39
2025-04-16 15:47:23.392,42,50,39,46,48
2025-04-16 15:47:23.400,36,69,37,43,36
2025-04-16 15:47:23.413,35,37,42,45,53
2025-04-16 15:47:23.440,56,30,60,36,34
2025-04-16 15:47:23.441,39,33,46,43,37
2025-04-16 15:47:23.443,32,36,64,39,37
2025-04-16 15:47:23.452,43,62,64,42,48
2025-04-16 15:47:23.461,35,40,50,25,31
2025-04-16 15:47:23.472,41,41,37,55,60
2025-04-16 15:47:23.480,33,59,52,64,44
2025-04-16 15:47:23.507,45,36,38,30,55
2025-04-16 15:47:23.509,40,72,27,67,39
2025-04-16 15:47:23.512,49,39,51,44,41
2025-04-16 15:47:23.524,45,21,66,31,40
2025-04-16 15:47:23.532,32,34,27,64,38
2025-04-16 15:47:23.544,37,26,61,39,34
2025-04-16 15:47:23.552,34,45,41,48,45
2025-04-16 15:47:23.572,35,49,48,49,41
2025-04-16 15:47:23.573,53,46,45,35,61
2025-04-16 15:47:23.585,45,52,45,60,45
2025-04-16 15:47:23.593,41,30,44,41,50
2025-04-16 15:47:23.604,61,53,42,75,27
2025-04-16 15:47:23.611,39,32,31,45,41
2025-04-16 15:47:23.637,44,49,32,40,44
2025-04-16 15:47:23.638,45,45,50,37,13
2025-04-16 15:47:23.645,37,38,33,52,38
2025-04-16 15:47:23.653,39,35,42,52,20
2025-04-16 15:47:23.665,52,32,33,26,49
2025-04-16 15:47:23.673,35,53,30,55,23
2025-04-16 15:47:23.684,32,24,41,34,42
2025-04-16 15:47:23.702,55,43,40,33,37
2025-04-16 15:47:23.705,32,39,34,46,48
2025-04-16 15:47:23.712,33,38,38,31,25
2025-04-16 15:47:23.724,31,40,52,25,44
2025-04-16 15:47:23.732,44,48,57,66,42
2025-04-16 15:47:23.744,24,29,49,32,46
2025-04-16 15:47:23.769,41,40,50,46,54
2025-04-16 15:47:23.770,38,40,41,44,38
2025-04-16 15:47:23.777,35,48,29,32,37
2025-04-16 15:47:23.778,35,48,29,32,37
2025-04-16 15:47:23.785,31,37,31,47,21
2025-04-16 15:47:23.797,39,25,52,70,45
2025-04-16 15:47:23.804,22,33,44,42,47
2025-04-16 15:47:23.816,25,37,56,38,30
2025-04-16 15:47:23.837,32,28,31,32,25
2025-04-16 15:47:23.838,27,21,34,30,33
2025-04-16 15:47:23.845,25,27,37,47,28
2025-04-16 15:47:23.856,36,35,26,34,40
2025-04-16 15:47:23.864,45,30,46,39,45
2025-04-16 15:47:23.876,32,19,50,19,42
2025-04-16 15:47:23.884,37,37,30,30,38
2025-04-16 15:47:23.905,41,26,43,40,46
2025-04-16 15:47:23.907,37,30,25,41,49
2025-04-16 15:47:23.916,27,34,40,36,46
2025-04-16 15:47:23.924,36,40,28,24,26
2025-04-16 15:47:23.936,32,41,15,33,36
2025-04-16 15:47:23.945,32,33,19,37,53
2025-04-16 15:47:23.975,39,28,20,34,43
2025-04-16 15:47:23.977,26,23,35,42,59
2025-04-16 15:47:23.978,37,37,37,42,36
2025-04-16 15:47:23.984,39,31,20,26,24
2025-04-16 15:47:23.996,28,26,23,39,32
2025-04-16 15:47:24.004,39,29,36,33,48
2025-04-16 15:47:24.016,21,17,35,23,33
2025-04-16 15:47:24.044,27,31,30,54,43
2025-04-16 15:47:24.045,10,20,39,42,51
2025-04-16 15:47:24.048,30,24,35,47,27
2025-04-16 15:47:24.056,19,36,25,52,33
2025-04-16 15:47:24.068,26,24,26,27,38
2025-04-16 15:47:24.076,23,33,19,32,29
2025-04-16 15:47:24.088,13,35,26,28,52
2025-04-16 15:47:24.112,22,22,34,35,31
2025-04-16 15:47:24.113,23,33,27,40,29
2025-04-16 15:47:24.116,25,17,17,33,42
2025-04-16 15:47:24.128,24,34,29,26,12
2025-04-16 15:47:24.136,27,34,33,11,36
2025-04-16 15:47:24.148,5,28,27,43,18
2025-04-16 15:47:24.156,18,30,32,29,45
2025-04-16 15:47:24.185,10,16,33,35,30
2025-04-16 15:47:24.187,8,28,24,42,43
2025-04-16 15:47:24.188,42,13,22,26,31
2025-04-16 15:47:24.196,0,17,27,31,25
2025-04-16 15:47:24.208,0,13,37,28,26
2025-04-16 15:47:24.216,0,13,26,21,41
2025-04-16 15:47:24.228,0,20,35,24,32
2025-04-16 15:47:24.254,0,29,33,33,17
2025-04-16 15:47:24.256,53,17,26,28,29
2025-04-16 15:47:24.258,85,14,37,29,34
2025-04-16 15:47:24.268,188,0,18,16,14
2025-04-16 15:47:24.276,75,10,29,30,31
2025-04-16 15:47:24.289,31,27,26,20,27
2025-04-16 15:47:24.296,0,13,20,29,13
2025-04-16 15:47:24.322,0,37,10,18,21
2025-04-16 15:47:24.324,0,9,14,28,24
2025-04-16 15:47:24.328,0,0,28,27,30
2025-04-16 15:47:24.336,0,0,16,26,8
2025-04-16 15:47:24.347,0,0,30,22,21
2025-04-16 15:47:24.360,0,20,27,32,31
2025-04-16 15:47:24.368,0,127,19,24,20
2025-04-16 15:47:24.389,0,95,15,25,25
2025-04-16 15:47:24.390,0,230,6,24,28
2025-04-16 15:47:24.400,0,118,11,25,35
2025-04-16 15:47:24.408,0,0,32,19,17
2025-04-16 15:47:24.420,11,0,16,31,25
2025-04-16 15:47:24.428,32,0,33,19,24
2025-04-16 15:47:24.454,46,0,5,28,24
2025-04-16 15:47:24.456,46,0,0,35,26
2025-04-16 15:47:24.460,47,0,0,36,27
2025-04-16 15:47:24.468,51,0,0,29,11
2025-04-16 15:47:24.480,59,0,53,18,30
2025-04-16 15:47:24.488,65,0,175,16,22
2025-04-16 15:47:24.500,62,0,86,7,14
2025-04-16 15:47:24.520,50,0,125,29,24
2025-04-16 15:47:24.521,55,0,38,17,22
2025-04-16 15:47:24.527,57,8,0,14,31
2025-04-16 15:47:24.540,59,20,0,22,14
2025-04-16 15:47:24.548,58,34,0,3,33
2025-04-16 15:47:24.560,59,39,0,15,25
2025-04-16 15:47:24.567,43,57,0,11,16
2025-04-16 15:47:24.585,64,50,0,22,19
2025-04-16 15:47:24.586,64,50,0,22,19
2025-04-16 15:47:24.588,64,61,0,10,17
2025-04-16 15:47:24.599,53,58,0,0,17
2025-04-16 15:47:24.607,57,66,0,8,4
2025-04-16 15:47:24.620,64,56,0,25,19
2025-04-16 15:47:24.631,57,58,0,8,15
2025-04-16 15:47:24.651,55,53,27,34,13
2025-04-16 15:47:24.653,59,55,31,3,5
2025-04-16 15:47:24.661,64,55,42,0,14
2025-04-16 15:47:24.671,67,61,51,0,13
2025-04-16 15:47:24.681,59,54,60,0,13
2025-04-16 15:47:24.692,69,52,54,23,19
2025-04-16 15:47:24.700,71,54,55,117,7
2025-04-16 15:47:24.721,67,56,59,82,12
2025-04-16 15:47:24.723,45,49,67,150,14
2025-04-16 15:47:24.733,46,53,58,51,0
2025-04-16 15:47:24.740,51,61,54,0,8
2025-04-16 15:47:24.751,48,55,52,0,27
2025-04-16 15:47:24.760,51,64,66,0,12
2025-04-16 15:47:24.794,64,50,52,0,18
2025-04-16 15:47:24.795,47,71,57,0,0
2025-04-16 15:47:24.796,62,57,56,0,0
2025-04-16 15:47:24.799,62,63,49,0,0
2025-04-16 15:47:24.812,49,76,54,0,0
2025-04-16 15:47:24.820,49,54,58,0,55
2025-04-16 15:47:24.831,43,54,45,0,164
2025-04-16 15:47:24.839,40,50,63,0,84
2025-04-16 15:47:24.859,60,50,63,0,112
2025-04-16 15:47:24.863,70,54,58,5,17
2025-04-16 15:47:24.872,43,48,53,21,0
2025-04-16 15:47:24.883,62,53,53,36,0
2025-04-16 15:47:24.891,44,55,62,40,0
2025-04-16 15:47:24.904,37,62,58,49,0
2025-04-16 15:47:24.922,44,45,65,57,0
2025-04-16 15:47:24.924,68,45,60,56,0
2025-04-16 15:47:24.932,62,41,63,61,0
2025-04-16 15:47:24.943,50,37,73,51,0
2025-04-16 15:47:24.952,50,48,56,60,0
2025-04-16 15:47:24.964,65,44,44,59,0
2025-04-16 15:47:24.971,36,46,54,58,0
2025-04-16 15:47:24.988,55,44,50,57,0
2025-04-16 15:47:24.992,45,41,60,56,17
2025-04-16 15:47:25.004,26,52,61,43,19
2025-04-16 15:47:25.012,43,36,49,52,42
2025-04-16 15:47:25.024,58,36,50,50,34
2025-04-16 15:47:25.031,28,50,40,61,47
2025-04-16 15:47:25.056,17,53,47,58,50
2025-04-16 15:47:25.058,51,35,44,51,62
2025-04-16 15:47:25.064,50,31,50,52,47
2025-04-16 15:47:25.071,46,40,56,68,54
2025-04-16 15:47:25.084,66,47,26,51,50
2025-04-16 15:47:25.092,42,64,44,56,53
2025-04-16 15:47:25.104,56,49,48,46,45
2025-04-16 15:47:25.121,46,35,41,60,58
2025-04-16 15:47:25.123,67,43,30,59,49
2025-04-16 15:47:25.135,58,45,45,68,52
2025-04-16 15:47:25.144,60,29,44,62,54
2025-04-16 15:47:25.156,31,66,46,64,51
2025-04-16 15:47:25.163,58,32,49,46,59
2025-04-16 15:47:25.186,64,31,52,50,50
2025-04-16 15:47:25.187,64,43,30,53,48
2025-04-16 15:47:25.196,59,31,52,42,47
2025-04-16 15:47:25.203,63,43,45,46,48
2025-04-16 15:47:25.216,62,38,37,51,51
2025-04-16 15:47:25.223,57,31,45,54,55
2025-04-16 15:47:25.251,54,59,45,55,49
2025-04-16 15:47:25.253,43,64,59,43,55
2025-04-16 15:47:25.256,27,61,29,43,61
2025-04-16 15:47:25.263,67,38,28,52,59
2025-04-16 15:47:25.276,41,64,40,55,53
2025-04-16 15:47:25.284,26,40,60,36,66
2025-04-16 15:47:25.295,39,48,41,54,49
2025-04-16 15:47:25.323,32,58,65,35,44
2025-04-16 15:47:25.325,45,57,39,59,35
2025-04-16 15:47:25.327,77,50,24,49,41
2025-04-16 15:47:25.335,37,84,31,46,47
2025-04-16 15:47:25.343,21,53,57,36,48
2025-04-16 15:47:25.356,32,70,46,45,44
2025-04-16 15:47:25.367,51,32,47,26,46
2025-04-16 15:47:25.388,55,42,41,49,37
2025-04-16 15:47:25.389,53,57,48,67,49
2025-04-16 15:47:25.395,40,29,45,55,44
2025-04-16 15:47:25.407,20,62,67,43,44
2025-04-16 15:47:25.415,52,46,49,44,63
2025-04-16 15:47:25.427,54,36,52,48,32
2025-04-16 15:47:25.435,44,51,60,59,33
2025-04-16 15:47:25.453,27,37,77,38,37
2025-04-16 15:47:25.455,48,36,61,51,42
2025-04-16 15:47:25.468,71,34,56,44,41
2025-04-16 15:47:25.475,47,49,34,39,23
2025-04-16 15:47:25.487,35,38,65,28,25
2025-04-16 15:47:25.496,65,38,60,38,47
2025-04-16 15:47:25.518,37,45,29,70,50
2025-04-16 15:47:25.520,36,23,55,45,41
2025-04-16 15:47:25.528,56,31,40,42,39
2025-04-16 15:47:25.536,35,50,52,51,25
2025-04-16 15:47:25.548,11,63,50,45,38
2025-04-16 15:47:25.556,49,59,52,59,48
2025-04-16 15:47:25.585,54,46,21,51,34
2025-04-16 15:47:25.587,34,32,44,57,30
2025-04-16 15:47:25.588,63,45,23,46,42
2025-04-16 15:47:25.591,63,45,23,46,42
2025-04-16 15:47:25.595,49,30,53,51,34
2025-04-16 15:47:25.607,62,63,43,51,11
2025-04-16 15:47:25.616,38,32,72,36,29
2025-04-16 15:47:25.627,16,27,36,51,32
2025-04-16 15:47:25.651,53,29,41,59,24
2025-04-16 15:47:25.652,65,50,50,42,22
2025-04-16 15:47:25.660,35,37,63,30,40
2025-04-16 15:47:25.667,38,41,44,37,41
2025-04-16 15:47:25.679,50,30,39,31,41
2025-04-16 15:47:25.687,34,28,22,56,29
2025-04-16 15:47:25.699,41,31,61,44,24
2025-04-16 15:47:25.718,29,36,36,36,55
2025-04-16 15:47:25.720,45,43,28,38,49
2025-04-16 15:47:25.728,42,34,53,56,21
2025-04-16 15:47:25.738,41,25,40,41,29
2025-04-16 15:47:25.747,28,42,31,49,19
2025-04-16 15:47:25.759,34,49,37,65,41
2025-04-16 15:47:25.783,28,35,40,56,50
2025-04-16 15:47:25.785,32,33,38,67,39
2025-04-16 15:47:25.787,42,38,42,46,59
2025-04-16 15:47:25.800,36,30,49,38,46
2025-04-16 15:47:25.807,21,41,26,32,50
2025-04-16 15:47:25.819,29,33,35,75,44
2025-04-16 15:47:25.827,31,29,47,26,40
2025-04-16 15:47:25.847,21,32,39,66,43
2025-04-16 15:47:25.849,38,39,18,35,47
2025-04-16 15:47:25.858,26,48,59,32,35
2025-04-16 15:47:25.866,34,20,21,47,57
2025-04-16 15:47:25.880,33,37,25,59,37
2025-04-16 15:47:25.887,34,35,39,53,41
2025-04-16 15:47:25.911,30,27,48,44,14
2025-04-16 15:47:25.913,32,32,45,52,40
2025-04-16 15:47:25.919,22,18,40,54,30
2025-04-16 15:47:25.931,34,18,35,47,20
2025-04-16 15:47:25.939,32,33,43,38,18
2025-04-16 15:47:25.951,29,33,47,41,30
2025-04-16 15:47:25.958,30,37,46,57,43
2025-04-16 15:47:25.976,32,45,47,68,64
2025-04-16 15:47:25.979,31,39,62,65,40
2025-04-16 15:47:25.991,31,40,37,83,43
2025-04-16 15:47:25.999,26,59,50,69,64
2025-04-16 15:47:26.011,45,57,63,128,73
2025-04-16 15:47:26.019,51,74,78,139,89
2025-04-16 15:47:26.041,74,104,89,196,121
2025-04-16 15:47:26.042,121,121,123,281,135
2025-04-16 15:47:26.051,180,178,157,388,159
2025-04-16 15:47:26.059,284,233,216,530,216
2025-04-16 15:47:26.071,435,325,282,741,312
2025-04-16 15:47:26.079,622,446,352,955,411
2025-04-16 15:47:26.108,862,569,438,1186,524
2025-04-16 15:47:26.109,1141,717,546,1463,664
2025-04-16 15:47:26.111,1497,922,722,1824,840
2025-04-16 15:47:26.123,1945,1155,892,2245,999
2025-04-16 15:47:26.130,2463,1417,1099,2749,1242
2025-04-16 15:47:26.143,2985,1705,1307,3239,1507
2025-04-16 15:47:26.151,3509,2008,1522,3703,1775
2025-04-16 15:47:26.173,3910,2273,1653,4055,2016
2025-04-16 15:47:26.175,3997,2410,1661,4084,2200
2025-04-16 15:47:26.183,3686,2315,1514,3713,2196
2025-04-16 15:47:26.191,3090,2020,1241,3080,1995
2025-04-16 15:47:26.203,2372,1613,927,2349,1660
2025-04-16 15:47:26.211,1705,1238,638,1697,1271
2025-04-16 15:47:26.222,1212,943,446,1218,935
2025-04-16 15:47:26.239,861,732,313,869,678
2025-04-16 15:47:26.243,610,556,226,627,500
2025-04-16 15:47:26.251,409,436,168,469,360
2025-04-16 15:47:26.263,291,345,126,326,264
2025-04-16 15:47:26.270,199,256,89,219,189
2025-04-16 15:47:26.283,129,190,72,153,124
2025-04-16 15:47:26.304,115,125,54,110,110
2025-04-16 15:47:26.306,56,96,43,66,77
2025-04-16 15:47:26.311,21,58,35,42,56
2025-04-16 15:47:26.322,0,52,29,38,44
2025-04-16 15:47:26.331,0,35,34,31,44
2025-04-16 15:47:26.343,0,34,21,31,20
2025-04-16 15:47:26.351,56,26,25,27,28
2025-04-16 15:47:26.371,69,29,29,33,23
2025-04-16 15:47:26.373,180,6,19,24,7
2025-04-16 15:47:26.383,92,21,26,15,30
2025-04-16 15:47:26.395,52,33,20,29,25
2025-04-16 15:47:26.397,52,33,20,29,25
2025-04-16 15:47:26.402,0,54,18,20,20
2025-04-16 15:47:26.410,0,32,21,28,18
2025-04-16 15:47:26.442,0,0,21,35,16
2025-04-16 15:47:26.444,0,0,15,28,20
2025-04-16 15:47:26.445,0,0,20,24,22
2025-04-16 15:47:26.452,0,9,20,31,33
2025-04-16 15:47:26.462,0,104,24,27,28
2025-04-16 15:47:26.471,0,134,13,25,28
2025-04-16 15:47:26.483,0,183,0,25,16
2025-04-16 15:47:26.509,0,136,13,31,24
2025-04-16 15:47:26.511,5,40,32,24,18
2025-04-16 15:47:26.514,14,11,27,31,22
2025-04-16 15:47:26.523,33,0,31,20,29
2025-04-16 15:47:26.535,35,0,21,24,21
2025-04-16 15:47:26.542,51,0,0,28,37
2025-04-16 15:47:26.555,57,0,0,25,20
2025-04-16 15:47:26.578,58,31,0,36,19
2025-04-16 15:47:26.580,64,37,1,34,15
2025-04-16 15:47:26.583,68,51,97,30,19
2025-04-16 15:47:26.595,65,60,109,18,17
2025-04-16 15:47:26.603,66,83,148,28,27
2025-04-16 15:47:26.614,64,108,89,24,24
2025-04-16 15:47:26.622,74,147,0,25,28
2025-04-16 15:47:26.643,65,172,0,25,23
2025-04-16 15:47:26.644,66,202,0,34,38
2025-04-16 15:47:26.654,69,223,0,36,31
2025-04-16 15:47:26.662,77,241,0,38,36
2025-04-16 15:47:26.675,70,257,0,39,41
2025-04-16 15:47:26.682,54,266,0,45,38
2025-04-16 15:47:26.708,76,274,0,40,48
2025-04-16 15:47:26.709,69,292,0,35,41
2025-04-16 15:47:26.714,76,298,0,39,43
2025-04-16 15:47:26.723,67,319,0,33,39
2025-04-16 15:47:26.735,83,345,0,45,50
2025-04-16 15:47:26.742,83,348,21,72,56
2025-04-16 15:47:26.754,90,367,29,72,48
2025-04-16 15:47:26.773,89,383,49,66,49
2025-04-16 15:47:26.774,80,393,54,61,60
2025-04-16 15:47:26.782,90,405,65,0,63
2025-04-16 15:47:26.794,97,421,54,0,67
2025-04-16 15:47:26.806,79,452,67,18,67
2025-04-16 15:47:26.815,92,458,77,78,77
2025-04-16 15:47:26.840,97,475,78,188,83
2025-04-16 15:47:26.841,98,487,78,173,67
2025-04-16 15:47:26.847,84,500,80,203,83
2025-04-16 15:47:26.854,88,497,78,168,71
2025-04-16 15:47:26.867,84,515,70,33,81
2025-04-16 15:47:26.874,97,514,76,0,111
2025-04-16 15:47:26.887,87,521,84,0,109
2025-04-16 15:47:26.905,98,516,71,0,86
2025-04-16 15:47:26.906,98,508,69,0,79
2025-04-16 15:47:26.914,92,526,71,5,10
2025-04-16 15:47:26.926,97,499,67,28,1
2025-04-16 15:47:26.935,83,489,63,22,38
2025-04-16 15:47:26.947,93,478,69,18,87
2025-04-16 15:47:26.969,89,469,73,19,186
2025-04-16 15:47:26.971,96,471,73,33,170
2025-04-16 15:47:26.975,100,429,68,47,167
2025-04-16 15:47:26.986,89,439,80,70,123
2025-04-16 15:47:26.994,88,441,73,71,0
2025-04-16 15:47:27.007,82,432,61,94,0
2025-04-16 15:47:27.014,63,430,75,87,0
2025-04-16 15:47:27.034,66,423,72,97,0
2025-04-16 15:47:27.035,82,421,76,99,0
2025-04-16 15:47:27.047,57,429,84,99,0
2025-04-16 15:47:27.054,92,429,68,108,10
2025-04-16 15:47:27.067,79,458,70,113,12
2025-04-16 15:47:27.074,83,458,74,113,9
2025-04-16 15:47:27.102,84,439,60,112,17
2025-04-16 15:47:27.103,101,454,64,110,43
2025-04-16 15:47:27.107,103,472,63,110,49
2025-04-16 15:47:27.118,84,466,76,108,77
2025-04-16 15:47:27.126,74,462,67,124,80
2025-04-16 15:47:27.139,91,477,72,114,96
2025-04-16 15:47:27.146,91,469,64,115,95
2025-04-16 15:47:27.167,90,475,61,120,110
2025-04-16 15:47:27.168,75,483,76,118,108
2025-04-16 15:47:27.178,81,479,59,115,109
2025-04-16 15:47:27.186,79,479,67,117,108
2025-04-16 15:47:27.198,87,481,64,106,99
2025-04-16 15:47:27.206,69,478,65,111,104
2025-04-16 15:47:27.232,86,453,67,106,105
2025-04-16 15:47:27.233,80,469,85,110,107
2025-04-16 15:47:27.239,86,483,61,113,106
2025-04-16 15:47:27.246,81,461,78,116,100
2025-04-16 15:47:27.259,78,483,73,116,108
2025-04-16 15:47:27.265,59,506,79,117,116
2025-04-16 15:47:27.278,90,499,68,127,115
2025-04-16 15:47:27.297,75,491,82,123,112
2025-04-16 15:47:27.298,73,473,74,115,117
2025-04-16 15:47:27.306,112,467,55,117,113
2025-04-16 15:47:27.319,71,479,57,110,121
2025-04-16 15:47:27.326,82,509,65,122,115
2025-04-16 15:47:27.338,87,483,61,101,112
2025-04-16 15:47:27.361,94,487,64,120,104
2025-04-16 15:47:27.362,93,509,66,112,109
2025-04-16 15:47:27.370,106,515,43,124,120
2025-04-16 15:47:27.378,58,502,91,122,116
2025-04-16 15:47:27.390,90,508,48,114,115
2025-04-16 15:47:27.398,81,487,62,107,113
2025-04-16 15:47:27.402,81,487,62,107,113
2025-04-16 15:47:27.409,68,480,61,111,113
2025-04-16 15:47:27.427,87,448,54,99,103
2025-04-16 15:47:27.434,89,448,52,104,100
2025-04-16 15:47:27.438,73,465,54,98,108
2025-04-16 15:47:27.450,74,433,60,103,95
2025-04-16 15:47:27.458,65,438,55,100,83
2025-04-16 15:47:27.470,83,421,50,87,109
2025-04-16 15:47:27.493,67,419,80,66,103
2025-04-16 15:47:27.495,87,403,42,92,92
2025-04-16 15:47:27.498,54,406,77,84,98
2025-04-16 15:47:27.510,55,392,78,85,92
2025-04-16 15:47:27.518,66,413,48,93,88
2025-04-16 15:47:27.530,62,385,56,71,85
2025-04-16 15:47:27.538,70,350,53,79,80
2025-04-16 15:47:27.560,59,381,57,76,85
2025-04-16 15:47:27.562,44,385,58,89,92
2025-04-16 15:47:27.570,71,390,50,77,106
2025-04-16 15:47:27.578,51,366,84,67,91
2025-04-16 15:47:27.590,50,363,68,90,77
2025-04-16 15:47:27.598,56,377,40,93,75
2025-04-16 15:47:27.625,64,361,41,69,72
2025-04-16 15:47:27.626,62,362,41,92,73
2025-04-16 15:47:27.630,59,369,69,90,70
2025-04-16 15:47:27.638,79,326,54,65,65
2025-04-16 15:47:27.650,66,335,62,61,62
2025-04-16 15:47:27.657,75,335,54,73,77
2025-04-16 15:47:27.670,50,339,46,66,51
2025-04-16 15:47:27.690,50,344,50,76,83
2025-04-16 15:47:27.691,57,322,45,61,70
2025-04-16 15:47:27.699,70,291,49,61,59
2025-04-16 15:47:27.710,56,314,45,70,62
2025-04-16 15:47:27.718,55,305,66,52,79
2025-04-16 15:47:27.730,55,304,54,70,70
2025-04-16 15:47:27.755,70,298,52,82,62
2025-04-16 15:47:27.756,41,301,62,61,51
2025-04-16 15:47:27.762,66,296,47,64,55
2025-04-16 15:47:27.771,44,276,39,72,46
2025-04-16 15:47:27.781,62,274,39,63,45
2025-04-16 15:47:27.790,60,285,55,71,46
2025-04-16 15:47:27.801,58,268,61,35,54
2025-04-16 15:47:27.821,55,286,45,84,50
2025-04-16 15:47:27.822,46,274,31,78,44
2025-04-16 15:47:27.830,46,258,42,58,45
2025-04-16 15:47:27.841,45,263,74,32,61
2025-04-16 15:47:27.851,39,269,45,60,68
2025-04-16 15:47:27.861,48,254,57,51,52
2025-04-16 15:47:27.886,44,243,38,60,77
2025-04-16 15:47:27.888,53,254,39,55,56
2025-04-16 15:47:27.890,53,257,47,52,42
2025-04-16 15:47:27.902,40,240,49,40,43
2025-04-16 15:47:27.910,42,248,51,34,68
2025-04-16 15:47:27.921,43,252,41,67,70
2025-04-16 15:47:27.930,44,225,40,63,41
2025-04-16 15:47:27.952,47,222,24,80,71
2025-04-16 15:47:27.954,32,218,31,34,40
2025-04-16 15:47:27.962,40,213,29,51,58
2025-04-16 15:47:27.969,41,216,59,79,38
2025-04-16 15:47:27.981,40,217,40,83,26
2025-04-16 15:47:27.990,32,192,16,42,36
2025-04-16 15:47:28.017,32,190,43,17,47
2025-04-16 15:47:28.018,45,193,34,48,55
2025-04-16 15:47:28.022,31,178,39,32,63
2025-04-16 15:47:28.029,37,177,47,59,61
2025-04-16 15:47:28.041,40,168,54,58,47
2025-04-16 15:47:28.050,42,159,26,49,41
2025-04-16 15:47:28.062,38,160,44,47,23
2025-04-16 15:47:28.081,45,154,31,52,38
2025-04-16 15:47:28.082,34,173,31,68,40
2025-04-16 15:47:28.094,35,159,46,54,53
2025-04-16 15:47:28.102,45,157,47,33,58
2025-04-16 15:47:28.113,31,152,45,44,62
2025-04-16 15:47:28.122,40,150,53,41,39
2025-04-16 15:47:28.145,31,158,32,46,24
2025-04-16 15:47:28.147,42,147,21,60,47
2025-04-16 15:47:28.155,30,147,34,45,30
2025-04-16 15:47:28.162,23,153,28,28,42
2025-04-16 15:47:28.174,34,147,38,52,34
2025-04-16 15:47:28.181,36,140,33,34,30
2025-04-16 15:47:28.194,32,139,36,39,53
2025-04-16 15:47:28.212,40,142,15,21,31
2025-04-16 15:47:28.213,27,144,34,50,58
2025-04-16 15:47:28.222,37,145,22,23,48
2025-04-16 15:47:28.233,43,130,44,41,40
2025-04-16 15:47:28.242,32,132,28,33,42
2025-04-16 15:47:28.253,30,130,34,32,35
2025-04-16 15:47:28.278,28,120,41,39,30
2025-04-16 15:47:28.280,26,132,24,44,29
2025-04-16 15:47:28.282,34,121,21,57,38
2025-04-16 15:47:28.294,32,118,32,29,18
2025-04-16 15:47:28.302,29,127,42,35,29
2025-04-16 15:47:28.313,26,114,29,45,33
2025-04-16 15:47:28.322,29,121,40,44,19
2025-04-16 15:47:28.345,25,117,34,48,30
2025-04-16 15:47:28.346,31,129,22,33,46
2025-04-16 15:47:28.355,24,112,33,45,20
2025-04-16 15:47:28.362,27,112,34,35,33
2025-04-16 15:47:28.374,30,112,33,38,32
2025-04-16 15:47:28.381,33,106,29,18,44
2025-04-16 15:47:28.394,13,109,27,25,35
2025-04-16 15:47:28.410,19,111,29,27,38
2025-04-16 15:47:28.412,19,111,29,27,38
2025-04-16 15:47:28.413,20,105,37,37,37
2025-04-16 15:47:28.422,48,98,28,33,41
2025-04-16 15:47:28.433,34,97,31,37,36
2025-04-16 15:47:28.442,20,98,27,40,33
2025-04-16 15:47:28.453,0,96,21,30,37
2025-04-16 15:47:28.474,0,90,21,28,33
2025-04-16 15:47:28.476,0,93,36,41,29
2025-04-16 15:47:28.486,0,92,33,30,35
2025-04-16 15:47:28.493,50,81,29,41,25
2025-04-16 15:47:28.505,155,74,25,20,18
2025-04-16 15:47:28.513,130,79,27,29,29
2025-04-16 15:47:28.540,115,83,26,27,23
2025-04-16 15:47:28.541,62,76,35,29,25
2025-04-16 15:47:28.546,0,109,23,28,31
2025-04-16 15:47:28.553,0,92,22,27,30
2025-04-16 15:47:28.565,0,87,12,39,23
2025-04-16 15:47:28.574,0,56,27,31,37
2025-04-16 15:47:28.585,0,0,20,25,19
2025-04-16 15:47:28.604,0,5,28,30,21
2025-04-16 15:47:28.605,0,70,27,27,20
2025-04-16 15:47:28.614,0,118,22,26,20
2025-04-16 15:47:28.625,0,218,5,24,28
2025-04-16 15:47:28.633,0,191,13,23,33
2025-04-16 15:47:28.646,0,168,12,34,17
2025-04-16 15:47:28.671,0,118,7,24,23
2025-04-16 15:47:28.672,23,0,41,26,16
2025-04-16 15:47:28.674,28,0,30,34,25
2025-04-16 15:47:28.685,42,0,12,26,27
2025-04-16 15:47:28.693,46,0,0,20,21
2025-04-16 15:47:28.706,51,0,0,23,26
2025-04-16 15:47:28.713,51,7,0,28,14
2025-04-16 15:47:28.736,54,22,27,39,31
2025-04-16 15:47:28.738,61,17,81,26,22
2025-04-16 15:47:28.746,56,18,164,19,23
2025-04-16 15:47:28.757,61,27,113,29,23
2025-04-16 15:47:28.766,66,54,61,27,28
2025-04-16 15:47:28.777,62,62,24,15,25
2025-04-16 15:47:28.784,62,82,0,11,21
2025-04-16 15:47:28.803,57,87,0,12,21
2025-04-16 15:47:28.805,56,98,0,23,24
2025-04-16 15:47:28.817,56,100,0,20,33
2025-04-16 15:47:28.825,70,98,0,21,17
2025-04-16 15:47:28.837,56,100,0,29,24
2025-04-16 15:47:28.846,50,108,0,27,19
2025-04-16 15:47:28.869,54,103,0,21,23
2025-04-16 15:47:28.870,61,104,0,2,26
2025-04-16 15:47:28.877,57,109,0,9,17
2025-04-16 15:47:28.886,53,105,0,25,24
2025-04-16 15:47:28.897,67,103,8,19,25
2025-04-16 15:47:28.905,53,102,25,45,14
2025-04-16 15:47:28.917,50,99,37,29,7
2025-04-16 15:47:28.937,60,95,40,0,10
2025-04-16 15:47:28.938,53,106,45,0,12
2025-04-16 15:47:28.946,64,101,48,0,16
2025-04-16 15:47:28.956,66,98,51,0,23
2025-04-16 15:47:28.965,65,99,50,56,11
2025-04-16 15:47:28.978,54,98,52,69,22
2025-04-16 15:47:28.985,61,95,55,167,19
2025-04-16 15:47:29.003,48,101,53,115,0
2025-04-16 15:47:29.009,68,100,47,50,0
2025-04-16 15:47:29.017,42,95,63,0,18
2025-04-16 15:47:29.025,47,95,50,0,22
2025-04-16 15:47:29.038,50,90,56,0,35
2025-04-16 15:47:29.045,51,88,58,0,22
2025-04-16 15:47:29.071,45,92,61,0,0
2025-04-16 15:47:29.072,49,99,53,0,0
2025-04-16 15:47:29.077,42,99,51,0,0
2025-04-16 15:47:29.089,57,92,57,0,0
2025-04-16 15:47:29.097,39,88,55,0,68
2025-04-16 15:47:29.109,45,100,48,0,88
2025-04-16 15:47:29.118,56,89,49,0,144
2025-04-16 15:47:29.138,51,95,48,0,98
2025-04-16 15:47:29.139,51,91,54,11,7
2025-04-16 15:47:29.149,54,100,52,30,0
2025-04-16 15:47:29.157,39,101,45,35,0
2025-04-16 15:47:29.169,40,85,64,45,0
2025-04-16 15:47:29.177,46,79,53,46,0
2025-04-16 15:47:29.208,40,95,61,48,0
2025-04-16 15:47:29.210,40,86,61,43,0
2025-04-16 15:47:29.211,31,85,63,52,0
2025-04-16 15:47:29.212,31,85,63,52,0
2025-04-16 15:47:29.216,36,78,50,51,0
2025-04-16 15:47:29.229,33,83,48,58,0
2025-04-16 15:47:29.237,47,69,49,53,0
2025-04-16 15:47:29.250,39,85,48,49,0
2025-04-16 15:47:29.280,51,74,51,51,10
2025-04-16 15:47:29.282,42,75,58,60,22
2025-04-16 15:47:29.283,70,83,50,55,30
2025-04-16 15:47:29.290,38,81,41,41,40
2025-04-16 15:47:29.298,60,90,31,52,38
2025-04-16 15:47:29.309,57,86,43,53,45
2025-04-16 15:47:29.321,46,97,55,49,45
2025-04-16 15:47:29.329,46,98,50,52,48
2025-04-16 15:47:29.350,40,100,47,48,53
2025-04-16 15:47:29.352,43,76,51,51,55
2025-04-16 15:47:29.361,78,90,32,58,47
2025-04-16 15:47:29.369,52,92,61,62,51
2025-04-16 15:47:29.381,52,69,56,58,51
2025-04-16 15:47:29.389,46,93,48,63,40
2025-04-16 15:47:29.416,74,82,38,60,51
2025-04-16 15:47:29.418,44,96,45,56,50
2025-04-16 15:47:29.421,31,73,56,56,52
2025-04-16 15:47:29.428,58,89,57,53,51
2025-04-16 15:47:29.441,71,65,40,58,53
2025-04-16 15:47:29.449,41,80,57,44,48
2025-04-16 15:47:29.461,43,71,65,43,47
2025-04-16 15:47:29.488,74,64,44,51,53
2025-04-16 15:47:29.490,36,72,66,56,42
2025-04-16 15:47:29.492,48,87,48,39,48
2025-04-16 15:47:29.502,57,74,33,50,51
2025-04-16 15:47:29.510,42,79,41,50,43
2025-04-16 15:47:29.521,33,97,44,48,46
2025-04-16 15:47:29.529,27,95,42,43,44
2025-04-16 15:47:29.559,52,63,45,45,46
2025-04-16 15:47:29.561,57,90,34,48,50
2025-04-16 15:47:29.562,30,75,57,34,54
2025-04-16 15:47:29.569,28,76,44,49,44
2025-04-16 15:47:29.581,34,82,57,50,46
2025-04-16 15:47:29.593,39,90,40,51,38
2025-04-16 15:47:29.601,65,84,47,43,36
2025-04-16 15:47:29.627,27,99,48,56,40
2025-04-16 15:47:29.629,67,111,22,60,40
2025-04-16 15:47:29.632,45,66,38,47,34
2025-04-16 15:47:29.641,52,70,55,38,48
2025-04-16 15:47:29.653,49,75,50,51,40
2025-04-16 15:47:29.660,35,114,41,54,32
2025-04-16 15:47:29.673,56,92,48,47,45
2025-04-16 15:47:29.698,49,81,78,42,37
2025-04-16 15:47:29.700,49,82,25,44,53
2025-04-16 15:47:29.701,61,72,44,64,31
2025-04-16 15:47:29.713,61,72,44,64,31
2025-04-16 15:47:29.721,51,71,77,44,44
2025-04-16 15:47:29.733,54,74,64,37,41
2025-04-16 15:47:29.741,42,75,57,36,32
2025-04-16 15:47:29.770,49,71,40,34,48
2025-04-16 15:47:29.772,64,89,35,61,42
2025-04-16 15:47:29.775,68,86,28,49,36
2025-04-16 15:47:29.781,46,88,56,55,28
2025-04-16 15:47:29.793,35,86,55,20,44
2025-04-16 15:47:29.801,41,85,49,40,46
2025-04-16 15:47:29.813,17,90,71,31,47
2025-04-16 15:47:29.817,17,90,71,31,47
2025-04-16 15:47:29.844,53,79,36,43,42
2025-04-16 15:47:29.846,48,81,72,36,21
2025-04-16 15:47:29.847,44,92,29,68,46
2025-04-16 15:47:29.854,41,73,43,42,25
2025-04-16 15:47:29.865,44,101,20,69,30
2025-04-16 15:47:29.873,56,84,54,48,47
2025-04-16 15:47:29.885,30,116,40,46,36
2025-04-16 15:47:29.916,47,95,53,48,44
2025-04-16 15:47:29.918,45,72,54,32,34
2025-04-16 15:47:29.920,33,94,48,48,42
2025-04-16 15:47:29.925,49,70,46,44,38
2025-04-16 15:47:29.933,40,77,42,51,35
2025-04-16 15:47:29.944,54,93,20,72,43
2025-04-16 15:47:29.953,42,95,40,62,15
2025-04-16 15:47:29.965,26,77,51,24,35
2025-04-16 15:47:29.985,37,80,25,50,54
2025-04-16 15:47:29.986,45,74,65,32,38
2025-04-16 15:47:29.992,34,90,38,36,44
2025-04-16 15:47:30.004,29,100,36,65,50
2025-04-16 15:47:30.013,52,97,60,52,37
2025-04-16 15:47:30.024,49,98,31,55,44
2025-04-16 15:47:30.032,31,80,34,38,35
2025-04-16 15:47:30.050,31,83,57,38,32
2025-04-16 15:47:30.052,45,93,57,41,67
2025-04-16 15:47:30.065,30,77,32,43,38
2025-04-16 15:47:30.072,38,94,42,23,28
2025-04-16 15:47:30.084,30,78,52,33,54
2025-04-16 15:47:30.093,34,89,39,55,67
2025-04-16 15:47:30.114,45,95,33,52,47
2025-04-16 15:47:30.116,30,78,42,39,23
2025-04-16 15:47:30.125,30,82,30,66,41
2025-04-16 15:47:30.136,22,74,24,31,42
2025-04-16 15:47:30.145,29,71,44,18,34
2025-04-16 15:47:30.156,41,90,44,31,28
2025-04-16 15:47:30.180,32,79,46,31,57
2025-04-16 15:47:30.181,27,87,47,54,44
2025-04-16 15:47:30.184,31,65,28,52,40
2025-04-16 15:47:30.196,42,70,20,43,25
2025-04-16 15:47:30.204,33,84,44,50,32
2025-04-16 15:47:30.216,36,59,34,37,47
2025-04-16 15:47:30.218,36,59,34,37,47
2025-04-16 15:47:30.225,35,72,53,45,41
2025-04-16 15:47:30.247,30,69,26,56,19
2025-04-16 15:47:30.249,38,70,31,42,34
2025-04-16 15:47:30.257,31,63,45,64,22
2025-04-16 15:47:30.265,34,64,27,37,29
2025-04-16 15:47:30.277,34,71,32,34,40
2025-04-16 15:47:30.284,26,70,33,41,63
2025-04-16 15:47:30.318,21,65,44,54,45
2025-04-16 15:47:30.320,32,79,22,29,30
2025-04-16 15:47:30.321,28,61,35,49,32
2025-04-16 15:47:30.325,30,64,21,36,16
2025-04-16 15:47:30.338,32,79,28,53,34
2025-04-16 15:47:30.344,25,69,37,36,8
2025-04-16 15:47:30.357,30,73,19,31,41
2025-04-16 15:47:30.365,29,67,28,16,34
2025-04-16 15:47:30.387,27,68,21,60,28
2025-04-16 15:47:30.388,34,70,32,28,40
2025-04-16 15:47:30.397,32,67,29,33,33
2025-04-16 15:47:30.408,22,58,23,35,31
2025-04-16 15:47:30.416,17,64,29,51,42
2025-04-16 15:47:30.428,31,62,34,36,27
2025-04-16 15:47:30.453,24,71,37,48,28
2025-04-16 15:47:30.454,29,56,19,43,25
2025-04-16 15:47:30.456,15,80,24,26,42
2025-04-16 15:47:30.469,29,71,37,33,30
2025-04-16 15:47:30.476,25,68,34,34,34
2025-04-16 15:47:30.488,28,68,29,17,33
2025-04-16 15:47:30.495,21,57,27,36,21
2025-04-16 15:47:30.526,23,70,27,37,27
2025-04-16 15:47:30.528,30,63,30,31,44
2025-04-16 15:47:30.529,4,56,19,36,30
2025-04-16 15:47:30.537,18,62,21,15,48
2025-04-16 15:47:30.548,6,70,30,35,41
2025-04-16 15:47:30.556,8,60,27,23,44
2025-04-16 15:47:30.567,51,65,21,27,24
2025-04-16 15:47:30.591,28,61,34,25,40
2025-04-16 15:47:30.592,24,61,32,31,29
2025-04-16 15:47:30.596,9,60,29,32,29
2025-04-16 15:47:30.607,0,61,33,27,23
2025-04-16 15:47:30.617,0,56,30,23,38
2025-04-16 15:47:30.628,0,65,24,33,26
2025-04-16 15:47:30.636,33,64,23,42,27
2025-04-16 15:47:30.656,138,48,18,18,8
2025-04-16 15:47:30.660,118,50,22,26,24
2025-04-16 15:47:30.667,116,43,31,38,8
2025-04-16 15:47:30.680,64,47,29,28,29
2025-04-16 15:47:30.688,0,79,26,28,28
2025-04-16 15:47:30.700,0,64,31,18,27
2025-04-16 15:47:30.723,0,50,14,33,27
2025-04-16 15:47:30.725,0,25,17,22,41
2025-04-16 15:47:30.727,0,0,20,19,24
2025-04-16 15:47:30.740,0,0,17,30,26
2025-04-16 15:47:30.748,0,43,23,17,21
2025-04-16 15:47:30.760,0,83,23,29,25
2025-04-16 15:47:30.768,0,203,5,20,22
2025-04-16 15:47:30.789,0,143,11,14,19
2025-04-16 15:47:30.790,0,147,14,27,23
2025-04-16 15:47:30.799,0,72,10,26,26
2025-04-16 15:47:30.807,19,0,40,26,25
2025-04-16 15:47:30.819,25,0,22,18,22
2025-04-16 15:47:30.828,43,0,0,33,41
2025-04-16 15:47:30.853,48,0,0,22,20
2025-04-16 15:47:30.854,54,0,0,34,23
2025-04-16 15:47:30.861,46,0,0,28,16
2025-04-16 15:47:30.868,54,0,32,27,29
2025-04-16 15:47:30.880,54,0,86,26,11
2025-04-16 15:47:30.888,59,0,174,25,27
2025-04-16 15:47:30.899,61,3,116,22,20
2025-04-16 15:47:30.917,59,25,76,23,16
2025-04-16 15:47:30.920,60,43,8,19,24
2025-04-16 15:47:30.927,59,60,0,12,26
2025-04-16 15:47:30.940,60,68,0,11,21
2025-04-16 15:47:30.952,60,77,0,21,26
2025-04-16 15:47:30.959,58,77,0,20,21
2025-04-16 15:47:30.982,60,86,0,26,23
2025-04-16 15:47:30.984,51,87,0,18,28
2025-04-16 15:47:30.992,58,93,0,22,30
2025-04-16 15:47:30.999,57,93,0,24,27
2025-04-16 15:47:31.012,59,91,0,0,21
2025-04-16 15:47:31.020,56,91,0,4,21
2025-04-16 15:47:31.023,56,91,0,4,21
2025-04-16 15:47:31.049,54,97,5,20,19
2025-04-16 15:47:31.050,55,98,31,39,14
2025-04-16 15:47:31.052,56,89,32,29,16
2025-04-16 15:47:31.060,60,94,50,0,13
2025-04-16 15:47:31.071,67,92,45,0,13
2025-04-16 15:47:31.079,71,96,53,0,10
2025-04-16 15:47:31.092,66,93,55,0,23
2025-04-16 15:47:31.115,52,91,52,96,18
2025-04-16 15:47:31.137,59,85,55,93,17
2025-04-16 15:47:31.140,64,96,60,156,6
2025-04-16 15:47:31.141,55,97,61,103,0
2025-04-16 15:47:31.143,52,87,60,0,2
2025-04-16 15:47:31.152,50,94,48,0,27
2025-04-16 15:47:31.160,48,86,53,0,24
2025-04-16 15:47:31.185,65,98,59,0,28
2025-04-16 15:47:31.186,56,94,63,0,14
2025-04-16 15:47:31.193,50,98,59,0,0
2025-04-16 15:47:31.200,58,91,60,0,0
2025-04-16 15:47:31.212,54,89,62,0,0
2025-04-16 15:47:31.224,37,83,51,0,12
2025-04-16 15:47:31.232,39,91,49,0,109
2025-04-16 15:47:31.252,41,88,58,0,113
2025-04-16 15:47:31.253,49,86,71,0,141
2025-04-16 15:47:31.264,55,87,54,5,86
2025-04-16 15:47:31.272,50,77,53,19,0
2025-04-16 15:47:31.284,60,85,63,35,0
2025-04-16 15:47:31.292,46,68,64,37,0
2025-04-16 15:47:31.318,47,75,54,46,0
2025-04-16 15:47:31.319,41,82,48,51,0
2025-04-16 15:47:31.324,59,84,59,52,0
2025-04-16 15:47:31.332,55,90,68,56,0
2025-04-16 15:47:31.343,60,77,69,57,0
2025-04-16 15:47:31.352,67,70,65,54,0
2025-04-16 15:47:31.364,63,79,41,54,0
2025-04-16 15:47:31.383,53,89,54,54,0
2025-04-16 15:47:31.385,64,84,53,51,0
2025-04-16 15:47:31.393,58,83,45,62,9
2025-04-16 15:47:31.404,44,85,53,52,11
2025-04-16 15:47:31.411,48,92,51,45,28
2025-04-16 15:47:31.424,49,77,46,50,37
2025-04-16 15:47:31.432,39,85,51,53,40
2025-04-16 15:47:31.450,60,81,48,47,35
2025-04-16 15:47:31.452,37,92,55,46,49
2025-04-16 15:47:31.463,57,99,46,52,51
2025-04-16 15:47:31.476,42,98,46,61,62
2025-04-16 15:47:31.483,65,82,46,52,56
2025-04-16 15:47:31.496,53,91,55,49,54
2025-04-16 15:47:31.514,42,77,59,61,47
2025-04-16 15:47:31.516,42,78,52,61,47
2025-04-16 15:47:31.524,57,54,55,53,47
2025-04-16 15:47:31.535,57,90,46,46,60
2025-04-16 15:47:31.543,74,96,35,59,52
2025-04-16 15:47:31.555,52,89,31,52,47
2025-04-16 15:47:31.578,58,74,44,63,50
2025-04-16 15:47:31.580,56,58,60,58,50
2025-04-16 15:47:31.584,45,102,57,62,45
2025-04-16 15:47:31.595,35,89,55,51,49
2025-04-16 15:47:31.604,46,102,43,39,44
2025-04-16 15:47:31.616,45,96,38,56,53
2025-04-16 15:47:31.624,53,73,55,59,42
2025-04-16 15:47:31.644,46,92,50,41,53
2025-04-16 15:47:31.645,73,94,30,54,55
2025-04-16 15:47:31.655,45,85,59,48,48
2025-04-16 15:47:31.663,31,85,55,35,48
2025-04-16 15:47:31.676,65,76,46,47,55
2025-04-16 15:47:31.683,55,67,33,42,60
2025-04-16 15:47:31.710,52,88,42,60,54
2025-04-16 15:47:31.712,72,68,39,39,47
2025-04-16 15:47:31.715,59,67,45,48,48
2025-04-16 15:47:31.727,64,87,25,57,38
2025-04-16 15:47:31.736,35,84,37,60,43
2025-04-16 15:47:31.748,66,98,30,64,35
2025-04-16 15:47:31.755,30,80,49,23,45
2025-04-16 15:47:31.775,51,106,33,68,42
2025-04-16 15:47:31.776,51,90,38,46,47
2025-04-16 15:47:31.787,45,70,63,24,38
2025-04-16 15:47:31.795,58,73,40,43,44
2025-04-16 15:47:31.807,69,68,52,50,48
2025-04-16 15:47:31.816,44,96,51,46,35
2025-04-16 15:47:31.839,55,65,33,60,51
2025-04-16 15:47:31.840,50,96,52,46,21
2025-04-16 15:47:31.848,51,92,39,56,42
2025-04-16 15:47:31.856,49,73,40,48,51
2025-04-16 15:47:31.868,35,84,72,22,52
2025-04-16 15:47:31.875,35,87,60,45,44
2025-04-16 15:47:31.887,67,91,44,56,30
2025-04-16 15:47:31.906,43,80,56,44,36
2025-04-16 15:47:31.907,61,68,36,51,44
2025-04-16 15:47:31.916,34,78,72,34,35
2025-04-16 15:47:31.927,37,59,68,32,49
2025-04-16 15:47:31.936,37,69,66,41,20
2025-04-16 15:47:31.947,62,83,18,56,40
2025-04-16 15:47:31.954,51,84,61,44,27
2025-04-16 15:47:31.973,36,78,61,33,38
2025-04-16 15:47:31.975,41,80,37,44,62
2025-04-16 15:47:31.988,48,63,53,29,34
2025-04-16 15:47:31.999,41,90,54,40,37
2025-04-16 15:47:32.007,38,103,32,57,43
2025-04-16 15:47:32.020,48,99,50,30,34
2025-04-16 15:47:32.038,40,72,72,14,34
2025-04-16 15:47:32.039,40,72,72,14,34
2025-04-16 15:47:32.041,32,80,29,60,26
2025-04-16 15:47:32.048,43,79,49,41,41
2025-04-16 15:47:32.059,34,65,58,41,43
2025-04-16 15:47:32.068,31,74,53,42,44
2025-04-16 15:47:32.079,30,73,53,47,45
2025-04-16 15:47:32.087,35,76,31,47,67
2025-04-16 15:47:32.106,31,81,44,60,34
2025-04-16 15:47:32.108,48,73,45,44,49
2025-04-16 15:47:32.119,43,66,53,31,51
2025-04-16 15:47:32.127,52,87,45,13,45
2025-04-16 15:47:32.139,32,90,40,45,57
2025-04-16 15:47:32.148,50,79,37,59,58
2025-04-16 15:47:32.171,35,72,40,34,36
2025-04-16 15:47:32.172,41,80,57,38,34
2025-04-16 15:47:32.180,19,78,43,24,39
2025-04-16 15:47:32.187,53,74,32,41,40
2025-04-16 15:47:32.200,39,80,51,63,39
2025-04-16 15:47:32.206,36,81,57,55,48
2025-04-16 15:47:32.219,34,72,47,18,59
2025-04-16 15:47:32.240,29,87,36,67,50
2025-04-16 15:47:32.242,31,79,31,55,29
2025-04-16 15:47:32.247,33,73,29,40,38
2025-04-16 15:47:32.259,27,83,45,31,35
2025-04-16 15:47:32.271,26,77,27,24,61
2025-04-16 15:47:32.279,29,76,52,47,54
2025-04-16 15:47:32.307,33,69,46,53,49
2025-04-16 15:47:32.308,35,64,32,49,43
2025-04-16 15:47:32.311,31,84,44,44,36
2025-04-16 15:47:32.319,26,94,47,57,37
2025-04-16 15:47:32.331,37,78,47,51,0
2025-04-16 15:47:32.339,40,65,46,31,50
2025-04-16 15:47:32.351,28,66,45,38,29
2025-04-16 15:47:32.371,34,68,32,32,21
2025-04-16 15:47:32.373,34,70,37,27,24
2025-04-16 15:47:32.379,34,71,48,49,18
2025-04-16 15:47:32.391,32,68,25,42,43
2025-04-16 15:47:32.399,47,62,47,28,28
2025-04-16 15:47:32.411,41,69,34,43,41
2025-04-16 15:47:32.418,25,81,22,35,43
2025-04-16 15:47:32.436,26,64,27,40,31
2025-04-16 15:47:32.439,27,62,40,39,32
2025-04-16 15:47:32.452,23,72,21,48,11
2025-04-16 15:47:32.459,37,73,30,36,21
2025-04-16 15:47:32.471,24,65,30,41,53
2025-04-16 15:47:32.479,35,77,35,29,41
2025-04-16 15:47:32.501,33,63,26,28,40
2025-04-16 15:47:32.502,27,64,24,59,35
2025-04-16 15:47:32.511,31,68,45,46,44
2025-04-16 15:47:32.519,36,68,39,20,29
2025-04-16 15:47:32.532,26,64,31,24,16
2025-04-16 15:47:32.543,23,57,29,37,34
2025-04-16 15:47:32.569,29,64,35,40,42
2025-04-16 15:47:32.571,28,65,28,27,19
2025-04-16 15:47:32.572,26,63,39,31,19
2025-04-16 15:47:32.583,23,67,27,39,11
2025-04-16 15:47:32.591,31,66,35,34,25
2025-04-16 15:47:32.602,26,55,40,24,41
2025-04-16 15:47:32.611,22,69,24,32,28
2025-04-16 15:47:32.634,13,64,31,30,9
2025-04-16 15:47:32.635,31,66,33,25,49
2025-04-16 15:47:32.643,29,61,26,18,27
2025-04-16 15:47:32.651,16,59,26,41,34
2025-04-16 15:47:32.663,19,57,19,36,35
2025-04-16 15:47:32.670,9,59,22,23,46
2025-04-16 15:47:32.683,19,54,26,16,27
2025-04-16 15:47:32.702,33,59,28,45,20
2025-04-16 15:47:32.704,27,47,31,25,36
2025-04-16 15:47:32.712,36,57,18,36,40
2025-04-16 15:47:32.722,24,56,33,14,43
2025-04-16 15:47:32.731,0,53,33,22,28
2025-04-16 15:47:32.743,0,54,26,29,18
2025-04-16 15:47:32.751,0,62,33,24,38
2025-04-16 15:47:32.769,19,58,22,27,28
2025-04-16 15:47:32.771,146,46,23,26,13
2025-04-16 15:47:32.782,96,50,16,25,33
2025-04-16 15:47:32.795,125,43,27,39,19
2025-04-16 15:47:32.803,68,47,27,23,30
2025-04-16 15:47:32.810,0,73,26,29,24
2025-04-16 15:47:32.835,0,61,24,37,24
2025-04-16 15:47:32.836,0,49,19,30,15
2025-04-16 15:47:32.838,0,49,19,30,15
2025-04-16 15:47:32.843,0,0,18,29,26
2025-04-16 15:47:32.855,0,0,23,28,19
2025-04-16 15:47:32.863,0,3,26,26,12
2025-04-16 15:47:32.874,0,57,30,28,32
2025-04-16 15:47:32.883,0,188,8,22,30
2025-04-16 15:47:32.899,0,143,10,32,24
2025-04-16 15:47:32.903,0,158,8,24,18
2025-04-16 15:47:32.915,0,112,12,31,27
2025-04-16 15:47:32.923,23,0,44,23,18
2025-04-16 15:47:32.935,24,0,18,24,19
2025-04-16 15:47:32.943,42,0,18,25,28
2025-04-16 15:47:32.972,44,0,0,28,28
2025-04-16 15:47:32.973,49,0,0,33,25
2025-04-16 15:47:32.975,54,0,0,31,18
2025-04-16 15:47:32.982,58,0,11,23,31
2025-04-16 15:47:32.994,61,0,55,26,26
2025-04-16 15:47:33.002,54,0,162,21,25
2025-04-16 15:47:33.015,63,0,105,24,18
2025-04-16 15:47:33.037,52,27,83,22,19
2025-04-16 15:47:33.039,61,34,31,20,29
2025-04-16 15:47:33.043,63,61,0,18,23
2025-04-16 15:47:33.054,65,68,0,20,16
2025-04-16 15:47:33.063,63,75,0,20,24
2025-04-16 15:47:33.075,55,75,0,18,31
2025-04-16 15:47:33.103,51,87,0,20,14
2025-04-16 15:47:33.105,60,95,0,22,26
2025-04-16 15:47:33.107,47,94,0,25,24
2025-04-16 15:47:33.115,52,89,0,15,20
2025-04-16 15:47:33.126,56,84,0,0,17
2025-04-16 15:47:33.135,64,91,0,6,16
2025-04-16 15:47:33.146,56,88,0,26,12
2025-04-16 15:47:33.169,58,92,6,20,17
2025-04-16 15:47:33.170,63,94,27,37,10
2025-04-16 15:47:33.175,51,94,31,27,11
2025-04-16 15:47:33.187,65,94,44,0,21
2025-04-16 15:47:33.194,68,87,48,0,15
2025-04-16 15:47:33.207,63,88,52,0,5
2025-04-16 15:47:33.214,54,94,50,0,28
2025-04-16 15:47:33.236,63,84,58,90,14
2025-04-16 15:47:33.237,54,88,56,89,18
2025-04-16 15:47:33.247,45,81,52,158,16
2025-04-16 15:47:33.255,42,86,57,111,1
2025-04-16 15:47:33.266,51,80,56,0,2
2025-04-16 15:47:33.275,53,100,59,0,29
2025-04-16 15:47:33.301,48,88,56,0,16
2025-04-16 15:47:33.302,55,91,54,0,26
2025-04-16 15:47:33.307,50,79,59,0,17
2025-04-16 15:47:33.314,43,100,54,0,0
2025-04-16 15:47:33.326,52,93,52,0,0
2025-04-16 15:47:33.335,52,89,52,0,0
2025-04-16 15:47:33.346,58,88,48,0,13
2025-04-16 15:47:33.366,50,81,57,0,99
2025-04-16 15:47:33.367,45,94,63,0,100
2025-04-16 15:47:33.378,61,89,57,0,137
2025-04-16 15:47:33.387,35,79,50,9,83
2025-04-16 15:47:33.398,53,93,65,17,0
2025-04-16 15:47:33.406,59,101,55,33,0
2025-04-16 15:47:33.431,41,89,62,36,0
2025-04-16 15:47:33.432,21,84,59,41,0
2025-04-16 15:47:33.438,47,91,63,47,0
2025-04-16 15:47:33.447,33,91,59,52,0
2025-04-16 15:47:33.458,69,80,51,52,0
2025-04-16 15:47:33.467,49,92,57,70,0
2025-04-16 15:47:33.478,42,80,60,54,0
2025-04-16 15:47:33.495,63,102,51,59,0
2025-04-16 15:47:33.498,51,84,50,57,0
2025-04-16 15:47:33.506,38,93,50,57,0
2025-04-16 15:47:33.519,40,94,42,54,5
2025-04-16 15:47:33.527,35,95,67,53,15
2025-04-16 15:47:33.538,32,83,47,43,34
2025-04-16 15:47:33.561,60,88,42,56,36
2025-04-16 15:47:33.562,60,85,48,56,39
2025-04-16 15:47:33.567,42,71,51,59,44
2025-04-16 15:47:33.579,39,95,52,43,51
2025-04-16 15:47:33.586,63,92,35,56,52
2025-04-16 15:47:33.598,52,74,35,57,50
2025-04-16 15:47:33.607,51,74,51,61,56
2025-04-16 15:47:33.628,65,87,44,53,48
2025-04-16 15:47:33.630,27,71,56,43,49
2025-04-16 15:47:33.638,41,81,48,54,55
2025-04-16 15:47:33.641,41,81,48,54,55
2025-04-16 15:47:33.650,49,101,61,55,48
2025-04-16 15:47:33.658,51,101,38,48,43
2025-04-16 15:47:33.670,41,71,54,59,40
2025-04-16 15:47:33.693,34,76,64,55,45
2025-04-16 15:47:33.695,38,74,41,57,47
2025-04-16 15:47:33.698,58,66,46,49,42
2025-04-16 15:47:33.710,40,87,37,35,45
2025-04-16 15:47:33.718,28,75,71,40,51
2025-04-16 15:47:33.731,43,80,41,54,51
2025-04-16 15:47:33.738,73,94,27,47,49
2025-04-16 15:47:33.759,52,80,39,45,47
2025-04-16 15:47:33.761,69,79,28,58,39
2025-04-16 15:47:33.770,36,88,54,56,46
2025-04-16 15:47:33.778,51,63,37,54,43
2025-04-16 15:47:33.790,61,97,41,50,47
2025-04-16 15:47:33.798,74,105,34,42,57
2025-04-16 15:47:33.824,72,70,42,35,40
2025-04-16 15:47:33.825,58,84,34,56,41
2025-04-16 15:47:33.830,47,85,57,47,50
2025-04-16 15:47:33.839,66,80,40,42,42
2025-04-16 15:47:33.850,68,71,55,51,44
2025-04-16 15:47:33.858,40,101,60,48,39
2025-04-16 15:47:33.870,49,92,40,39,48
2025-04-16 15:47:33.889,65,85,42,53,54
2025-04-16 15:47:33.891,52,78,47,52,34
2025-04-16 15:47:33.903,54,89,20,47,45
2025-04-16 15:47:33.910,56,95,31,47,42
2025-04-16 15:47:33.922,40,98,37,51,45
2025-04-16 15:47:33.930,26,78,54,37,63
2025-04-16 15:47:33.957,35,88,37,54,37
2025-04-16 15:47:33.959,42,85,46,29,43
2025-04-16 15:47:33.963,38,88,53,58,53
2025-04-16 15:47:33.970,63,70,47,28,46
2025-04-16 15:47:33.982,38,56,62,22,54
2025-04-16 15:47:33.991,27,61,53,39,47
2025-04-16 15:47:34.002,51,62,77,38,34
2025-04-16 15:47:34.024,49,68,40,32,28
2025-04-16 15:47:34.025,42,76,58,31,47
2025-04-16 15:47:34.030,26,72,51,40,41
2025-04-16 15:47:34.042,42,77,71,12,38
2025-04-16 15:47:34.050,33,74,60,50,32
2025-04-16 15:47:34.063,42,108,42,59,44
2025-04-16 15:47:34.070,40,96,43,39,44
2025-04-16 15:47:34.088,26,73,61,31,45
2025-04-16 15:47:34.090,41,80,40,50,44
2025-04-16 15:47:34.103,51,76,31,65,30
2025-04-16 15:47:34.110,29,67,59,24,33
2025-04-16 15:47:34.122,45,73,57,36,37
2025-04-16 15:47:34.130,47,103,63,49,28
2025-04-16 15:47:34.152,39,73,75,24,29
2025-04-16 15:47:34.154,32,74,47,37,32
2025-04-16 15:47:34.162,61,87,17,60,38
2025-04-16 15:47:34.170,43,88,53,44,26
2025-04-16 15:47:34.182,31,89,55,51,37
2025-04-16 15:47:34.194,47,89,51,50,69
2025-04-16 15:47:34.222,33,85,58,39,58
2025-04-16 15:47:34.223,49,73,30,36,53
2025-04-16 15:47:34.225,48,68,58,29,50
2025-04-16 15:47:34.234,30,73,55,40,51
2025-04-16 15:47:34.242,50,72,48,33,37
2025-04-16 15:47:34.255,40,93,39,45,41
2025-04-16 15:47:34.262,38,84,28,67,27
2025-04-16 15:47:34.286,30,77,40,52,53
2025-04-16 15:47:34.288,48,71,55,24,46
2025-04-16 15:47:34.294,31,75,43,34,72
2025-04-16 15:47:34.302,40,52,41,36,42
2025-04-16 15:47:34.314,41,94,53,48,35
2025-04-16 15:47:34.322,28,79,45,50,61
2025-04-16 15:47:34.333,28,74,28,22,62
2025-04-16 15:47:34.351,24,78,46,40,51
2025-04-16 15:47:34.353,37,76,69,64,65
2025-04-16 15:47:34.362,23,74,47,49,46
2025-04-16 15:47:34.373,30,82,48,38,52
2025-04-16 15:47:34.382,20,70,44,25,35
2025-04-16 15:47:34.393,21,59,20,38,68
2025-04-16 15:47:34.417,32,62,46,30,48
2025-04-16 15:47:34.419,31,65,57,43,30
2025-04-16 15:47:34.422,44,77,39,45,36
2025-04-16 15:47:34.435,25,66,54,55,41
2025-04-16 15:47:34.446,34,66,53,38,39
2025-04-16 15:47:34.454,25,59,37,25,39
2025-04-16 15:47:34.466,33,71,46,36,12
2025-04-16 15:47:34.486,34,67,45,52,54
2025-04-16 15:47:34.488,36,76,38,60,46
2025-04-16 15:47:34.495,37,68,46,37,17
2025-04-16 15:47:34.506,34,51,39,26,30
2025-04-16 15:47:34.513,28,60,34,49,40
2025-04-16 15:47:34.526,44,52,37,47,35
2025-04-16 15:47:34.534,32,64,46,45,59
2025-04-16 15:47:34.550,32,61,25,31,59
2025-04-16 15:47:34.554,30,67,31,40,46
2025-04-16 15:47:34.566,24,54,35,32,30
2025-04-16 15:47:34.574,32,72,21,18,32
2025-04-16 15:47:34.586,38,60,33,40,16
2025-04-16 15:47:34.593,24,65,35,45,38
2025-04-16 15:47:34.615,33,70,27,39,51
2025-04-16 15:47:34.616,33,63,25,15,27
2025-04-16 15:47:34.626,27,64,24,44,30
2025-04-16 15:47:34.634,34,57,30,41,26
2025-04-16 15:47:34.646,34,57,39,40,28
2025-04-16 15:47:34.650,34,57,39,40,28
2025-04-16 15:47:34.654,19,58,30,41,32
2025-04-16 15:47:34.680,27,59,39,35,19
2025-04-16 15:47:34.681,18,53,40,24,28
2025-04-16 15:47:34.686,25,58,27,49,17
2025-04-16 15:47:34.697,19,77,37,47,26
2025-04-16 15:47:34.706,24,63,38,26,41
2025-04-16 15:47:34.717,22,67,25,36,37
2025-04-16 15:47:34.726,22,60,33,23,29
2025-04-16 15:47:34.746,27,57,35,46,25
2025-04-16 15:47:34.748,27,62,31,30,39
2025-04-16 15:47:34.758,27,60,29,11,49
2025-04-16 15:47:34.766,6,57,31,44,32
2025-04-16 15:47:34.778,19,57,28,32,56
2025-04-16 15:47:34.786,10,59,33,27,21
2025-04-16 15:47:34.816,10,69,32,32,30
2025-04-16 15:47:34.817,45,52,29,28,29
2025-04-16 15:47:34.818,22,56,37,26,34
2025-04-16 15:47:34.826,3,46,23,24,30
2025-04-16 15:47:34.838,0,53,23,24,36
2025-04-16 15:47:34.846,0,50,30,26,40
2025-04-16 15:47:34.857,0,59,35,27,36
2025-04-16 15:47:34.883,34,58,39,26,29
2025-04-16 15:47:34.885,72,51,35,23,32
2025-04-16 15:47:34.886,171,40,13,22,26
2025-04-16 15:47:34.897,103,43,19,18,23
2025-04-16 15:47:34.906,66,55,31,37,25
2025-04-16 15:47:34.918,17,47,22,19,28
2025-04-16 15:47:34.926,0,73,21,18,29
2025-04-16 15:47:34.948,0,59,20,30,18
2025-04-16 15:47:34.949,0,20,23,37,26
2025-04-16 15:47:34.958,0,12,14,24,18
2025-04-16 15:47:34.965,0,0,29,26,17
2025-04-16 15:47:34.978,0,31,24,30,27
2025-04-16 15:47:34.990,0,115,16,26,21
2025-04-16 15:47:35.013,0,122,25,29,22
2025-04-16 15:47:35.014,0,190,0,22,25
2025-04-16 15:47:35.018,0,121,14,35,33
2025-04-16 15:47:35.029,4,49,35,19,15
2025-04-16 15:47:35.038,7,19,28,24,27
2025-04-16 15:47:35.050,32,0,35,27,20
2025-04-16 15:47:35.058,36,0,25,28,28
2025-04-16 15:47:35.079,48,0,0,28,19
2025-04-16 15:47:35.081,44,0,0,24,22
2025-04-16 15:47:35.090,50,0,0,29,26
2025-04-16 15:47:35.098,52,0,17,29,25
2025-04-16 15:47:35.109,62,0,121,19,23
2025-04-16 15:47:35.117,60,0,87,29,22
2025-04-16 15:47:35.147,59,1,153,25,24
2025-04-16 15:47:35.149,59,17,89,21,21
2025-04-16 15:47:35.150,60,42,0,18,28
2025-04-16 15:47:35.159,59,53,0,20,21
2025-04-16 15:47:35.171,55,69,0,16,22
2025-04-16 15:47:35.178,59,71,0,22,20
2025-04-16 15:47:35.190,51,83,0,15,16
2025-04-16 15:47:35.215,62,78,0,22,31
2025-04-16 15:47:35.217,53,83,0,26,22
2025-04-16 15:47:35.218,55,87,0,21,24
2025-04-16 15:47:35.230,52,88,0,3,23
2025-04-16 15:47:35.237,50,96,0,11,20
2025-04-16 15:47:35.249,50,93,0,14,30
2025-04-16 15:47:35.258,58,95,0,12,16
2025-04-16 15:47:35.280,48,93,18,41,17
2025-04-16 15:47:35.282,59,82,22,16,9
2025-04-16 15:47:35.290,49,89,42,0,25
2025-04-16 15:47:35.301,55,81,44,0,13
2025-04-16 15:47:35.309,60,85,48,0,18
2025-04-16 15:47:35.322,60,88,51,0,11
2025-04-16 15:47:35.344,54,80,47,35,16
2025-04-16 15:47:35.346,52,86,60,64,19
2025-04-16 15:47:35.349,71,84,57,166,13
2025-04-16 15:47:35.362,59,101,55,99,0
2025-04-16 15:47:35.369,50,92,63,62,7
2025-04-16 15:47:35.381,52,89,54,22,15
2025-04-16 15:47:35.390,52,94,48,0,7
2025-04-16 15:47:35.411,40,84,67,0,31
2025-04-16 15:47:35.413,49,93,61,0,14
2025-04-16 15:47:35.422,58,93,56,0,0
2025-04-16 15:47:35.429,40,87,57,0,0
2025-04-16 15:47:35.441,57,101,53,0,0
2025-04-16 15:47:35.454,51,90,51,0,0
2025-04-16 15:47:35.455,51,90,51,0,0
2025-04-16 15:47:35.479,40,86,54,0,81
2025-04-16 15:47:35.480,55,82,66,0,171
2025-04-16 15:47:35.482,45,80,61,0,91
2025-04-16 15:47:35.489,56,90,54,5,18
2025-04-16 15:47:35.501,44,68,51,24,0
2025-04-16 15:47:35.510,49,87,55,32,0
2025-04-16 15:47:35.521,42,83,54,49,0
2025-04-16 15:47:35.545,52,73,62,49,0
2025-04-16 15:47:35.546,53,81,56,49,0
2025-04-16 15:47:35.553,42,70,61,53,0
2025-04-16 15:47:35.562,48,63,64,48,0
2025-04-16 15:47:35.574,47,74,39,58,0
2025-04-16 15:47:35.581,64,84,52,56,0
2025-04-16 15:47:35.592,48,87,52,62,0
2025-04-16 15:47:35.610,68,74,54,52,0
2025-04-16 15:47:35.613,32,92,45,56,0
2025-04-16 15:47:35.620,45,70,36,57,10
2025-04-16 15:47:35.634,47,71,64,53,24
2025-04-16 15:47:35.641,39,67,47,55,31
2025-04-16 15:47:35.652,47,81,57,51,40
2025-04-16 15:47:35.677,39,69,54,47,45
2025-04-16 15:47:35.678,28,90,44,48,44
2025-04-16 15:47:35.681,40,77,63,48,48
2025-04-16 15:47:35.694,64,77,52,50,51
2025-04-16 15:47:35.701,31,65,58,52,48
2025-04-16 15:47:35.714,53,87,56,64,42
2025-04-16 15:47:35.721,67,61,35,57,48
2025-04-16 15:47:35.742,66,92,30,54,50
2025-04-16 15:47:35.744,68,71,41,45,47
2025-04-16 15:47:35.753,36,73,50,52,55
2025-04-16 15:47:35.761,75,85,33,49,46
2025-04-16 15:47:35.773,46,80,39,57,57
2025-04-16 15:47:35.785,23,65,75,52,49
2025-04-16 15:47:35.808,45,61,50,54,44
2025-04-16 15:47:35.809,79,75,34,47,45
2025-04-16 15:47:35.813,51,70,37,55,50
2025-04-16 15:47:35.825,46,96,59,36,47
2025-04-16 15:47:35.833,59,73,42,43,52
2025-04-16 15:47:35.845,65,59,51,46,52
2025-04-16 15:47:35.853,42,83,49,57,42
2025-04-16 15:47:35.874,76,77,32,54,52
2025-04-16 15:47:35.875,44,76,30,59,50
2025-04-16 15:47:35.885,22,104,61,44,50
2025-04-16 15:47:35.893,62,82,34,48,45
2025-04-16 15:47:35.905,47,110,48,46,54
2025-04-16 15:47:35.913,61,87,48,34,45
2025-04-16 15:47:35.940,56,67,39,56,49
2025-04-16 15:47:35.942,53,80,49,36,53
2025-04-16 15:47:35.946,43,93,31,54,35
2025-04-16 15:47:35.953,35,88,42,59,51
2025-04-16 15:47:35.965,71,88,14,49,41
2025-04-16 15:47:35.972,38,92,39,38,40
2025-04-16 15:47:35.985,22,75,73,37,39
2025-04-16 15:47:36.008,65,69,40,41,34
2025-04-16 15:47:36.010,63,75,19,59,44
2025-04-16 15:47:36.013,57,93,45,47,39
2025-04-16 15:47:36.025,24,93,48,41,45
2025-04-16 15:47:36.033,35,80,58,56,51
2025-04-16 15:47:36.045,70,78,36,53,50
2025-04-16 15:47:36.057,48,58,58,40,32
2025-04-16 15:47:36.073,29,95,44,54,31
2025-04-16 15:47:36.077,48,61,77,39,44
2025-04-16 15:47:36.085,23,103,56,29,31
2025-04-16 15:47:36.096,37,95,55,44,66
2025-04-16 15:47:36.105,53,76,53,41,38
2025-04-16 15:47:36.117,51,86,44,26,8
2025-04-16 15:47:36.137,60,71,41,43,42
2025-04-16 15:47:36.138,34,62,37,26,41
2025-04-16 15:47:36.145,42,68,73,20,45
2025-04-16 15:47:36.157,42,82,59,49,39
2025-04-16 15:47:36.165,36,49,55,36,46
2025-04-16 15:47:36.177,37,86,47,59,38
2025-04-16 15:47:36.184,46,77,20,66,26
2025-04-16 15:47:36.201,29,63,43,52,40
2025-04-16 15:47:36.204,49,67,36,45,45
2025-04-16 15:47:36.217,38,80,40,49,22
2025-04-16 15:47:36.224,27,87,43,55,37
2025-04-16 15:47:36.236,46,89,56,42,65
2025-04-16 15:47:36.245,45,76,22,34,36
2025-04-16 15:47:36.266,34,73,44,34,21
2025-04-16 15:47:36.267,34,73,44,34,21
2025-04-16 15:47:36.269,44,79,40,34,15
2025-04-16 15:47:36.277,43,57,58,24,33
2025-04-16 15:47:36.285,49,81,45,44,31
2025-04-16 15:47:36.297,49,75,54,34,39
2025-04-16 15:47:36.305,41,77,49,49,52
2025-04-16 15:47:36.332,39,79,46,55,40
2025-04-16 15:47:36.333,37,76,37,46,60
2025-04-16 15:47:36.336,37,93,35,72,43
2025-04-16 15:47:36.349,45,83,56,63,51
2025-04-16 15:47:36.356,40,97,47,46,26
2025-04-16 15:47:36.369,35,68,53,31,69
2025-04-16 15:47:36.377,44,61,38,29,43
2025-04-16 15:47:36.397,47,78,40,37,23
2025-04-16 15:47:36.398,26,86,41,49,41
2025-04-16 15:47:36.409,40,79,38,42,32
2025-04-16 15:47:36.417,42,82,49,41,45
2025-04-16 15:47:36.428,31,74,34,50,62
2025-04-16 15:47:36.437,31,67,18,61,43
2025-04-16 15:47:36.462,24,69,40,49,27
2025-04-16 15:47:36.463,32,70,56,38,44
2025-04-16 15:47:36.469,29,68,39,27,50
2025-04-16 15:47:36.477,29,70,32,68,50
2025-04-16 15:47:36.489,43,64,23,40,21
2025-04-16 15:47:36.496,38,54,42,40,57
2025-04-16 15:47:36.509,29,71,45,40,41
2025-04-16 15:47:36.526,26,67,40,49,40
2025-04-16 15:47:36.529,42,66,33,34,33
2025-04-16 15:47:36.537,30,66,40,60,33
2025-04-16 15:47:36.548,30,60,34,28,24
2025-04-16 15:47:36.556,29,68,34,42,33
2025-04-16 15:47:36.569,22,69,42,48,36
2025-04-16 15:47:36.591,39,55,40,36,47
2025-04-16 15:47:36.592,37,69,32,33,52
2025-04-16 15:47:36.600,29,54,33,42,21
2025-04-16 15:47:36.609,30,65,36,23,32
2025-04-16 15:47:36.621,30,71,25,35,33
2025-04-16 15:47:36.628,28,59,35,43,23
2025-04-16 15:47:36.657,31,67,31,25,44
2025-04-16 15:47:36.658,31,72,30,36,36
2025-04-16 15:47:36.660,33,68,33,37,31
2025-04-16 15:47:36.669,38,65,38,35,25
2025-04-16 15:47:36.681,28,64,39,38,35
2025-04-16 15:47:36.689,34,66,25,41,34
2025-04-16 15:47:36.701,24,72,34,28,43
2025-04-16 15:47:36.722,36,54,23,9,49
2025-04-16 15:47:36.724,37,60,33,45,21
2025-04-16 15:47:36.728,28,66,27,41,15
2025-04-16 15:47:36.741,27,58,40,45,37
2025-04-16 15:47:36.748,36,64,22,42,38
2025-04-16 15:47:36.760,36,65,26,38,32
2025-04-16 15:47:36.768,24,66,29,37,38
2025-04-16 15:47:36.788,22,67,19,31,18
2025-04-16 15:47:36.789,18,56,34,42,29
2025-04-16 15:47:36.801,23,63,39,39,54
2025-04-16 15:47:36.809,19,68,21,40,40
2025-04-16 15:47:36.820,23,66,33,39,33
2025-04-16 15:47:36.829,26,65,24,42,32
2025-04-16 15:47:36.852,27,70,35,30,26
2025-04-16 15:47:36.853,30,64,24,30,29
2025-04-16 15:47:36.861,21,58,23,30,33
2025-04-16 15:47:36.868,3,53,23,28,32
2025-04-16 15:47:36.881,10,63,35,42,32
2025-04-16 15:47:36.892,23,59,27,25,40
2025-04-16 15:47:36.900,21,56,33,34,35
2025-04-16 15:47:36.917,44,56,27,30,37
2025-04-16 15:47:36.920,26,48,31,35,40
2025-04-16 15:47:36.933,0,54,35,34,21
2025-04-16 15:47:36.941,0,53,27,35,16
2025-04-16 15:47:36.953,0,63,30,34,38
2025-04-16 15:47:36.960,4,58,8,42,12
2025-04-16 15:47:36.982,108,54,20,34,29
2025-04-16 15:47:36.984,100,51,17,31,30
2025-04-16 15:47:36.992,148,33,24,36,19
2025-04-16 15:47:37.000,90,50,25,29,25
2025-04-16 15:47:37.013,0,75,25,27,33
2025-04-16 15:47:37.020,0,57,20,31,30
2025-04-16 15:47:37.047,0,55,21,30,18
2025-04-16 15:47:37.049,0,40,23,39,23
2025-04-16 15:47:37.052,0,0,22,24,25
2025-04-16 15:47:37.061,0,0,29,20,24
2025-04-16 15:47:37.072,0,15,23,26,36
2025-04-16 15:47:37.081,0,88,27,27,29
2025-04-16 15:47:37.093,0,192,10,31,26
2025-04-16 15:47:37.114,0,133,18,29,20
2025-04-16 15:47:37.116,0,133,8,35,26
2025-04-16 15:47:37.121,0,80,16,30,20
2025-04-16 15:47:37.133,22,0,44,28,19
2025-04-16 15:47:37.140,28,0,21,31,26
2025-04-16 15:47:37.153,40,0,6,32,30
2025-04-16 15:47:37.160,51,0,0,34,20
2025-04-16 15:47:37.181,45,0,0,21,31
2025-04-16 15:47:37.185,55,0,0,32,21
2025-04-16 15:47:37.193,55,0,41,26,24
2025-04-16 15:47:37.204,54,0,76,25,17
2025-04-16 15:47:37.212,58,0,170,18,18
2025-04-16 15:47:37.224,60,9,103,29,19
2025-04-16 15:47:37.247,62,32,39,25,14
2025-04-16 15:47:37.249,60,46,0,14,28
2025-04-16 15:47:37.252,64,62,0,14,31
2025-04-16 15:47:37.265,61,70,0,16,19
2025-04-16 15:47:37.267,61,70,0,16,19
2025-04-16 15:47:37.272,47,87,0,29,25
2025-04-16 15:47:37.284,58,85,0,22,26
2025-04-16 15:47:37.292,58,89,0,22,27
2025-04-16 15:47:37.314,66,91,0,7,20
2025-04-16 15:47:37.316,56,86,0,17,12
2025-04-16 15:47:37.324,48,98,0,0,8
2025-04-16 15:47:37.333,55,95,0,11,21
2025-04-16 15:47:37.344,54,95,9,37,8
2025-04-16 15:47:37.352,62,92,14,28,20
2025-04-16 15:47:37.380,52,97,38,28,14
2025-04-16 15:47:37.382,49,91,47,10,12
2025-04-16 15:47:37.384,68,85,48,0,17
2025-04-16 15:47:37.392,58,81,49,0,19
2025-04-16 15:47:37.405,63,82,58,0,21
2025-04-16 15:47:37.413,62,83,54,44,17
2025-04-16 15:47:37.424,54,89,56,154,13
2025-04-16 15:47:37.449,50,76,59,97,0
2025-04-16 15:47:37.450,53,90,46,118,11
2025-04-16 15:47:37.456,55,93,58,54,0
2025-04-16 15:47:37.465,56,96,63,0,1
2025-04-16 15:47:37.477,48,92,48,0,35
2025-04-16 15:47:37.484,55,88,54,0,17
2025-04-16 15:47:37.496,50,82,56,0,0
2025-04-16 15:47:37.513,51,90,56,0,0
2025-04-16 15:47:37.516,51,98,57,0,0
2025-04-16 15:47:37.524,51,99,51,0,0
2025-04-16 15:47:37.536,66,89,57,0,28
2025-04-16 15:47:37.543,55,96,57,0,74
2025-04-16 15:47:37.556,34,82,59,0,163
2025-04-16 15:47:37.578,72,85,52,0,94
2025-04-16 15:47:37.579,50,74,48,0,48
2025-04-16 15:47:37.584,55,92,50,23,5
2025-04-16 15:47:37.596,41,71,50,31,0
2025-04-16 15:47:37.604,36,79,54,46,0
2025-04-16 15:47:37.616,48,85,47,45,0
2025-04-16 15:47:37.623,51,81,52,42,0
2025-04-16 15:47:37.644,54,79,59,55,0
2025-04-16 15:47:37.645,32,79,61,53,0
2025-04-16 15:47:37.657,57,91,44,53,0
2025-04-16 15:47:37.668,44,72,46,54,0
2025-04-16 15:47:37.676,50,84,28,53,0
2025-04-16 15:47:37.684,56,77,51,55,0
2025-04-16 15:47:37.708,36,95,51,52,0
2025-04-16 15:47:37.710,38,86,56,47,7
2025-04-16 15:47:37.716,56,74,54,50,29
2025-04-16 15:47:37.728,45,65,54,57,30
2025-04-16 15:47:37.736,45,77,51,61,40
2025-04-16 15:47:37.748,73,82,34,54,46
2025-04-16 15:47:37.756,44,73,63,51,50
2025-04-16 15:47:37.773,28,76,65,55,53
2025-04-16 15:47:37.777,32,73,44,49,47
2025-04-16 15:47:37.788,72,82,33,56,50
2025-04-16 15:47:37.796,37,71,51,48,47
2025-04-16 15:47:37.808,29,65,59,56,52
2025-04-16 15:47:37.816,47,68,45,53,48
2025-04-16 15:47:37.838,31,62,66,50,50
2025-04-16 15:47:37.840,39,90,48,43,60
2025-04-16 15:47:37.848,49,69,43,59,49
2025-04-16 15:47:37.856,46,86,37,50,39
2025-04-16 15:47:37.868,38,86,55,62,43
2025-04-16 15:47:37.876,38,63,51,54,38
2025-04-16 15:47:37.903,59,49,48,60,53
2025-04-16 15:47:37.904,58,82,43,52,50
2025-04-16 15:47:37.908,31,85,51,39,50
2025-04-16 15:47:37.915,53,83,56,44,59
2025-04-16 15:47:37.927,45,52,52,48,42
2025-04-16 15:47:37.936,64,69,45,36,46
2025-04-16 15:47:37.948,80,90,41,40,44
2025-04-16 15:47:37.967,45,86,52,55,51
2025-04-16 15:47:37.969,39,80,56,38,36
2025-04-16 15:47:37.979,51,64,62,38,47
2025-04-16 15:47:37.988,55,60,38,47,39
2025-04-16 15:47:38.000,68,63,51,35,46
2025-04-16 15:47:38.008,28,101,50,43,51
2025-04-16 15:47:38.033,31,75,49,46,57
2025-04-16 15:47:38.034,51,68,43,55,41
2025-04-16 15:47:38.040,32,95,39,36,39
2025-04-16 15:47:38.048,41,99,38,59,46
2025-04-16 15:47:38.060,35,88,52,48,45
2025-04-16 15:47:38.072,63,66,29,42,42
2025-04-16 15:47:38.073,63,66,29,42,42
2025-04-16 15:47:38.080,49,82,22,49,47
2025-04-16 15:47:38.097,36,98,64,41,41
2025-04-16 15:47:38.100,42,87,36,47,40
2025-04-16 15:47:38.108,34,66,65,51,38
2025-04-16 15:47:38.119,49,58,72,36,50
2025-04-16 15:47:38.128,61,81,47,23,39
2025-04-16 15:47:38.139,24,72,61,42,45
2025-04-16 15:47:38.165,42,67,51,43,42
2025-04-16 15:47:38.166,68,69,38,48,53
2025-04-16 15:47:38.168,36,90,48,39,37
2025-04-16 15:47:38.180,24,94,55,38,27
2025-04-16 15:47:38.188,50,88,42,36,40
2025-04-16 15:47:38.200,42,100,35,59,31
2025-04-16 15:47:38.208,50,85,47,45,53
2025-04-16 15:47:38.230,52,91,34,60,61
2025-04-16 15:47:38.231,38,89,60,53,22
2025-04-16 15:47:38.240,27,76,65,33,36
2025-04-16 15:47:38.251,34,90,43,30,51
2025-04-16 15:47:38.260,31,69,59,31,52
2025-04-16 15:47:38.271,25,56,25,44,60
2025-04-16 15:47:38.295,40,89,16,69,43
2025-04-16 15:47:38.297,36,77,41,55,47
2025-04-16 15:47:38.300,51,72,53,41,35
2025-04-16 15:47:38.312,53,93,48,51,21
2025-04-16 15:47:38.319,51,74,35,56,46
2025-04-16 15:47:38.331,43,78,44,54,30
2025-04-16 15:47:38.340,44,81,32,70,30
2025-04-16 15:47:38.361,65,86,49,20,36
2025-04-16 15:47:38.362,40,76,49,40,61
2025-04-16 15:47:38.372,36,64,40,56,50
2025-04-16 15:47:38.380,51,91,44,52,59
2025-04-16 15:47:38.391,36,71,27,43,52
2025-04-16 15:47:38.400,45,91,45,45,25
2025-04-16 15:47:38.429,42,80,43,54,51
2025-04-16 15:47:38.431,39,76,59,28,30
2025-04-16 15:47:38.432,43,78,57,31,47
2025-04-16 15:47:38.440,47,85,42,62,46
2025-04-16 15:47:38.452,44,77,56,34,40
2025-04-16 15:47:38.460,27,71,42,44,23
2025-04-16 15:47:38.471,31,79,33,36,67
2025-04-16 15:47:38.496,39,70,20,55,37
2025-04-16 15:47:38.498,27,55,28,35,24
2025-04-16 15:47:38.504,27,71,46,19,54
2025-04-16 15:47:38.512,24,64,20,35,49
2025-04-16 15:47:38.523,24,74,43,38,43
2025-04-16 15:47:38.532,41,76,32,43,47
2025-04-16 15:47:38.543,20,66,41,23,20
2025-04-16 15:47:38.562,35,69,25,39,30
2025-04-16 15:47:38.564,27,71,53,22,49
2025-04-16 15:47:38.572,37,70,33,40,71
2025-04-16 15:47:38.584,40,73,35,29,23
2025-04-16 15:47:38.591,31,50,46,50,57
2025-04-16 15:47:38.602,38,57,49,31,50
2025-04-16 15:47:38.612,40,60,42,42,68
2025-04-16 15:47:38.628,34,69,42,36,30
2025-04-16 15:47:38.631,37,65,38,39,24
2025-04-16 15:47:38.644,28,54,27,57,35
2025-04-16 15:47:38.652,38,68,38,57,29
2025-04-16 15:47:38.664,34,47,44,49,42
2025-04-16 15:47:38.672,26,67,30,35,9
2025-04-16 15:47:38.696,32,58,44,18,27
2025-04-16 15:47:38.697,31,59,31,44,53
2025-04-16 15:47:38.704,21,64,34,26,34
2025-04-16 15:47:38.711,27,59,48,49,54
2025-04-16 15:47:38.724,17,60,24,35,49
2025-04-16 15:47:38.732,33,61,26,25,5
2025-04-16 15:47:38.743,32,52,28,23,26
2025-04-16 15:47:38.759,37,60,25,42,48
2025-04-16 15:47:38.764,37,64,23,18,38
2025-04-16 15:47:38.775,31,62,26,39,38
2025-04-16 15:47:38.783,31,62,20,40,61
2025-04-16 15:47:38.796,28,52,28,22,48
2025-04-16 15:47:38.803,25,53,39,31,18
2025-04-16 15:47:38.825,27,64,28,39,31
2025-04-16 15:47:38.826,32,59,27,35,29
2025-04-16 15:47:38.836,28,61,22,40,29
2025-04-16 15:47:38.843,36,59,19,43,22
2025-04-16 15:47:38.856,34,66,29,35,28
2025-04-16 15:47:38.863,25,73,22,36,50
2025-04-16 15:47:38.892,19,60,21,19,30
2025-04-16 15:47:38.893,19,60,21,19,30
2025-04-16 15:47:38.895,21,59,32,22,38
2025-04-16 15:47:38.896,21,59,32,22,38
2025-04-16 15:47:38.903,17,71,27,41,16
2025-04-16 15:47:38.915,30,68,22,15,27
2025-04-16 15:47:38.924,31,66,36,29,22
2025-04-16 15:47:38.935,24,64,31,28,23
2025-04-16 15:47:38.961,21,57,24,39,25
2025-04-16 15:47:38.962,2,59,33,20,42
2025-04-16 15:47:38.963,16,57,40,20,18
2025-04-16 15:47:38.976,32,61,27,31,43
2025-04-16 15:47:38.984,25,58,26,27,26
2025-04-16 15:47:38.995,31,60,19,35,47
2025-04-16 15:47:39.004,20,59,33,24,35
2025-04-16 15:47:39.027,0,57,27,26,35
2025-04-16 15:47:39.028,0,57,30,23,26
2025-04-16 15:47:39.036,0,59,30,22,30
2025-04-16 15:47:39.048,40,69,27,41,27
2025-04-16 15:47:39.055,150,43,29,26,36
2025-04-16 15:47:39.067,102,55,18,26,23
2025-04-16 15:47:39.076,123,44,21,29,28
2025-04-16 15:47:39.095,123,44,21,29,28
2025-04-16 15:47:39.097,0,81,19,27,27
2025-04-16 15:47:39.098,0,63,26,25,23
2025-04-16 15:47:39.108,0,50,13,31,26
2025-04-16 15:47:39.115,0,24,28,25,24
2025-04-16 15:47:39.127,0,0,17,29,25
2025-04-16 15:47:39.135,0,0,22,29,25
2025-04-16 15:47:39.160,0,33,25,25,32
2025-04-16 15:47:39.162,0,94,25,24,16
2025-04-16 15:47:39.168,0,204,3,22,29
2025-04-16 15:47:39.175,0,144,13,26,19
2025-04-16 15:47:39.187,0,123,24,28,23
2025-04-16 15:47:39.196,0,80,13,23,22
2025-04-16 15:47:39.207,21,0,46,21,3
2025-04-16 15:47:39.227,26,0,27,27,15
2025-04-16 15:47:39.229,50,0,0,34,29
2025-04-16 15:47:39.235,53,0,0,17,22
2025-04-16 15:47:39.247,52,0,0,36,18
2025-04-16 15:47:39.256,54,0,0,30,7
2025-04-16 15:47:39.267,59,0,61,27,17
2025-04-16 15:47:39.293,62,0,80,21,16
2025-04-16 15:47:39.295,52,0,177,16,25
2025-04-16 15:47:39.299,55,4,168,38,26
2025-04-16 15:47:39.307,56,24,59,20,22
2025-04-16 15:47:39.319,63,36,8,16,33
2025-04-16 15:47:39.327,61,58,0,13,30
2025-04-16 15:47:39.339,54,65,0,17,20
2025-04-16 15:47:39.359,66,79,0,19,26
2025-04-16 15:47:39.361,63,79,0,12,21
2025-04-16 15:47:39.367,61,89,0,31,28
2025-04-16 15:47:39.378,61,81,0,25,29
2025-04-16 15:47:39.388,52,88,0,19,24
2025-04-16 15:47:39.399,55,96,0,12,21
2025-04-16 15:47:39.407,50,93,0,0,10
2025-04-16 15:47:39.425,64,91,0,10,22
2025-04-16 15:47:39.427,57,85,2,27,21
2025-04-16 15:47:39.439,54,91,4,15,11
2025-04-16 15:47:39.446,50,83,34,32,5
2025-04-16 15:47:39.459,58,87,37,21,9
2025-04-16 15:47:39.467,64,91,47,0,15
2025-04-16 15:47:39.492,60,86,47,0,17
2025-04-16 15:47:39.493,61,86,49,0,14
2025-04-16 15:47:39.501,59,89,65,0,21
2025-04-16 15:47:39.507,63,93,59,126,25
2025-04-16 15:47:39.520,53,87,61,120,3
2025-04-16 15:47:39.527,49,99,50,139,13
2025-04-16 15:47:39.539,58,91,58,76,0
2025-04-16 15:47:39.560,44,97,55,0,4
2025-04-16 15:47:39.562,54,85,59,0,30
2025-04-16 15:47:39.567,64,95,57,0,17
2025-04-16 15:47:39.580,44,94,62,0,12
2025-04-16 15:47:39.587,47,99,57,0,8
2025-04-16 15:47:39.599,56,94,52,0,0
2025-04-16 15:47:39.628,61,82,53,0,0
2025-04-16 15:47:39.630,61,87,51,0,0
2025-04-16 15:47:39.632,37,85,65,0,33
2025-04-16 15:47:39.639,57,98,57,0,145
2025-04-16 15:47:39.651,60,91,58,0,92
2025-04-16 15:47:39.659,50,95,55,0,104
2025-04-16 15:47:39.671,52,100,49,17,30
2025-04-16 15:47:39.697,49,88,51,24,0
2025-04-16 15:47:39.699,53,76,55,41,0
2025-04-16 15:47:39.700,39,89,56,36,0
2025-04-16 15:47:39.711,60,87,48,48,0
2025-04-16 15:47:39.719,50,92,66,48,0
2025-04-16 15:47:39.732,32,84,59,56,0
2025-04-16 15:47:39.739,62,78,61,57,0
2025-04-16 15:47:39.767,35,84,73,57,0
2025-04-16 15:47:39.769,38,75,49,60,0
2025-04-16 15:47:39.771,53,79,53,59,0
2025-04-16 15:47:39.779,55,79,47,58,0
2025-04-16 15:47:39.791,54,102,51,50,0
2025-04-16 15:47:39.800,48,78,52,59,13
2025-04-16 15:47:39.810,32,73,60,51,29
2025-04-16 15:47:39.837,47,82,50,53,38
2025-04-16 15:47:39.838,55,77,48,50,39
2025-04-16 15:47:39.840,35,92,43,58,43
2025-04-16 15:47:39.851,59,104,51,53,40
2025-04-16 15:47:39.863,54,86,56,45,46
2025-04-16 15:47:39.872,17,93,67,49,48
2025-04-16 15:47:39.883,31,88,53,51,53
2025-04-16 15:47:39.885,31,88,53,51,53
2025-04-16 15:47:39.909,47,85,63,51,53
2025-04-16 15:47:39.910,36,102,54,48,46
2025-04-16 15:47:39.912,42,87,44,53,50
2025-04-16 15:47:39.923,30,59,44,57,55
2025-04-16 15:47:39.931,51,77,37,55,48
2025-04-16 15:47:39.944,18,75,56,62,41
2025-04-16 15:47:39.951,44,74,49,56,50
2025-04-16 15:47:39.977,38,54,43,53,44
2025-04-16 15:47:39.979,39,80,56,54,50
2025-04-16 15:47:39.983,69,93,45,49,47
2025-04-16 15:47:39.991,53,73,47,55,44
2025-04-16 15:47:40.003,64,64,34,50,47
2025-04-16 15:47:40.011,75,65,43,47,51
2025-04-16 15:47:40.024,24,67,59,36,48
2025-04-16 15:47:40.046,62,61,42,37,51
2025-04-16 15:47:40.047,37,85,51,36,46
2025-04-16 15:47:40.052,50,85,38,49,50
2025-04-16 15:47:40.063,35,107,47,46,48
2025-04-16 15:47:40.071,44,86,40,65,39
2025-04-16 15:47:40.082,73,80,18,53,58
2025-04-16 15:47:40.092,53,70,42,41,53
2025-04-16 15:47:40.114,56,101,36,52,52
2025-04-16 15:47:40.116,49,74,47,44,43
2025-04-16 15:47:40.122,55,77,19,46,49
2025-04-16 15:47:40.134,40,104,26,57,53
2025-04-16 15:47:40.143,13,99,65,51,46
2025-04-16 15:47:40.156,56,70,49,54,43
2025-04-16 15:47:40.163,52,105,45,44,36
2025-04-16 15:47:40.185,43,92,38,35,53
2025-04-16 15:47:40.186,40,82,61,33,39
2025-04-16 15:47:40.196,41,77,47,55,46
2025-04-16 15:47:40.203,22,76,56,43,48
2025-04-16 15:47:40.214,42,74,51,47,55
2025-04-16 15:47:40.223,22,73,63,43,42
2025-04-16 15:47:40.254,57,81,58,32,62
2025-04-16 15:47:40.256,21,105,66,27,49
2025-04-16 15:47:40.257,44,83,56,46,61
2025-04-16 15:47:40.262,46,64,64,19,21
2025-04-16 15:47:40.275,50,83,51,48,30
2025-04-16 15:47:40.282,68,64,14,65,35
2025-04-16 15:47:40.295,56,79,69,46,38
2025-04-16 15:47:40.303,64,77,9,54,50
2025-04-16 15:47:40.323,34,68,48,43,38
2025-04-16 15:47:40.325,50,90,31,69,41
2025-04-16 15:47:40.335,52,69,48,36,39
2025-04-16 15:47:40.342,60,57,46,45,57
2025-04-16 15:47:40.354,35,81,32,63,25
2025-04-16 15:47:40.363,21,72,56,29,32
2025-04-16 15:47:40.390,33,62,33,41,59
2025-04-16 15:47:40.392,36,93,47,73,38
2025-04-16 15:47:40.395,47,67,45,56,27
2025-04-16 15:47:40.407,41,86,26,57,36
2025-04-16 15:47:40.414,34,83,44,56,34
2025-04-16 15:47:40.427,48,62,39,41,22
2025-04-16 15:47:40.435,18,64,29,47,28
2025-04-16 15:47:40.456,32,74,49,56,33
2025-04-16 15:47:40.458,48,74,63,39,58
2025-04-16 15:47:40.467,41,62,57,54,32
2025-04-16 15:47:40.475,32,70,42,68,32
2025-04-16 15:47:40.487,51,77,35,65,22
2025-04-16 15:47:40.495,32,58,40,65,29
2025-04-16 15:47:40.521,32,59,58,42,29
2025-04-16 15:47:40.522,43,78,36,38,51
2025-04-16 15:47:40.527,39,68,57,38,40
2025-04-16 15:47:40.534,41,66,49,42,47
2025-04-16 15:47:40.546,40,65,29,68,53
2025-04-16 15:47:40.555,33,70,57,55,31
2025-04-16 15:47:40.566,37,52,33,39,42
2025-04-16 15:47:40.585,52,72,41,26,22
2025-04-16 15:47:40.586,31,65,37,19,49
2025-04-16 15:47:40.594,35,75,48,33,38
2025-04-16 15:47:40.607,30,68,46,18,54
2025-04-16 15:47:40.614,43,69,46,34,59
2025-04-16 15:47:40.627,35,57,28,38,30
2025-04-16 15:47:40.651,22,77,56,46,39
2025-04-16 15:47:40.653,23,66,33,53,52
2025-04-16 15:47:40.655,26,62,19,26,23
2025-04-16 15:47:40.667,36,77,25,67,34
2025-04-16 15:47:40.678,36,66,47,51,32
2025-04-16 15:47:40.687,27,56,38,45,43
2025-04-16 15:47:40.691,27,56,38,45,43
2025-04-16 15:47:40.698,24,58,45,29,28
2025-04-16 15:47:40.718,28,52,30,34,28
2025-04-16 15:47:40.720,35,64,34,39,8
2025-04-16 15:47:40.726,25,58,39,40,30
2025-04-16 15:47:40.738,39,71,22,32,41
2025-04-16 15:47:40.747,26,55,41,37,12
2025-04-16 15:47:40.758,39,60,31,48,45
2025-04-16 15:47:40.766,19,58,41,38,23
2025-04-16 15:47:40.784,47,58,38,26,34
2025-04-16 15:47:40.787,36,59,36,36,56
2025-04-16 15:47:40.799,32,55,22,37,49
2025-04-16 15:47:40.807,26,50,30,23,57
2025-04-16 15:47:40.818,29,58,33,50,32
2025-04-16 15:47:40.826,28,56,31,45,16
2025-04-16 15:47:40.852,32,61,27,38,25
2025-04-16 15:47:40.854,23,57,35,39,43
2025-04-16 15:47:40.859,27,51,34,28,36
2025-04-16 15:47:40.866,35,67,29,43,59
2025-04-16 15:47:40.878,40,63,29,42,37
2025-04-16 15:47:40.887,34,59,27,39,28
2025-04-16 15:47:40.898,33,61,34,30,28
2025-04-16 15:47:40.917,27,60,29,49,13
2025-04-16 15:47:40.919,24,46,39,49,28
2025-04-16 15:47:40.926,30,60,39,49,27
2025-04-16 15:47:40.939,24,62,30,26,45
2025-04-16 15:47:40.950,22,73,36,31,28
2025-04-16 15:47:40.959,24,62,35,25,40
2025-04-16 15:47:40.982,29,51,30,47,25
2025-04-16 15:47:40.983,24,60,25,25,40
2025-04-16 15:47:40.990,29,54,37,35,45
2025-04-16 15:47:40.998,23,57,27,45,25
2025-04-16 15:47:41.010,19,57,33,32,40
2025-04-16 15:47:41.018,25,45,22,22,39
2025-04-16 15:47:41.030,17,47,34,36,19
2025-04-16 15:47:41.047,18,50,24,23,34
2025-04-16 15:47:41.051,9,49,29,25,35
2025-04-16 15:47:41.058,13,56,34,25,36
2025-04-16 15:47:41.070,41,51,24,29,42
2025-04-16 15:47:41.079,24,47,38,24,30
2025-04-16 15:47:41.090,16,47,26,35,28
2025-04-16 15:47:41.113,0,57,25,23,34
2025-04-16 15:47:41.114,0,47,20,26,31
2025-04-16 15:47:41.119,0,49,31,39,35
2025-04-16 15:47:41.130,14,56,29,23,25
2025-04-16 15:47:41.137,53,51,31,37,34
2025-04-16 15:47:41.151,159,37,26,31,22
2025-04-16 15:47:41.158,114,36,32,21,37
2025-04-16 15:47:41.182,101,37,23,26,21
2025-04-16 15:47:41.184,37,36,32,23,23
2025-04-16 15:47:41.190,0,70,23,29,32
2025-04-16 15:47:41.199,0,46,28,25,25
2025-04-16 15:47:41.210,0,24,15,23,10
2025-04-16 15:47:41.217,0,25,23,27,23
2025-04-16 15:47:41.230,0,0,14,23,18
2025-04-16 15:47:41.248,0,0,26,13,11
2025-04-16 15:47:41.250,0,60,26,16,24
2025-04-16 15:47:41.261,0,105,15,24,25
2025-04-16 15:47:41.270,0,199,0,19,22
2025-04-16 15:47:41.282,0,132,8,31,29
2025-04-16 15:47:41.290,0,78,25,29,11
2025-04-16 15:47:41.313,0,51,6,27,21
2025-04-16 15:47:41.314,29,0,46,26,21
2025-04-16 15:47:41.323,32,0,20,27,16
2025-04-16 15:47:41.330,46,0,0,31,15
2025-04-16 15:47:41.343,41,0,0,22,20
2025-04-16 15:47:41.350,50,0,0,23,24
2025-04-16 15:47:41.361,53,0,0,31,20
2025-04-16 15:47:41.382,53,0,66,25,28
2025-04-16 15:47:41.384,69,0,106,21,18
2025-04-16 15:47:41.390,44,0,177,17,18
2025-04-16 15:47:41.402,61,0,96,21,23
2025-04-16 15:47:41.410,60,22,29,20,25
2025-04-16 15:47:41.423,54,32,0,13,29
2025-04-16 15:47:41.430,59,54,0,13,24
2025-04-16 15:47:41.453,60,63,0,22,19
2025-04-16 15:47:41.454,62,73,0,22,19
2025-04-16 15:47:41.462,61,79,0,13,26
2025-04-16 15:47:41.470,55,82,0,28,26
2025-04-16 15:47:41.483,59,90,0,25,28
2025-04-16 15:47:41.494,59,85,0,16,18
2025-04-16 15:47:41.496,59,85,0,16,18
2025-04-16 15:47:41.522,60,80,0,0,9
2025-04-16 15:47:41.524,56,86,0,15,15
2025-04-16 15:47:41.526,54,78,10,35,13
2025-04-16 15:47:41.534,55,87,13,24,21
2025-04-16 15:47:41.543,62,80,39,37,14
2025-04-16 15:47:41.554,61,81,36,20,18
2025-04-16 15:47:41.563,53,86,46,0,23
2025-04-16 15:47:41.593,62,78,53,0,18
2025-04-16 15:47:41.595,65,91,50,0,20
2025-04-16 15:47:41.597,69,80,55,12,24
2025-04-16 15:47:41.601,53,84,59,132,24
2025-04-16 15:47:41.614,47,87,55,103,1
2025-04-16 15:47:41.622,60,73,48,144,11
2025-04-16 15:47:41.634,48,86,49,88,1
2025-04-16 15:47:41.642,56,82,56,0,5
2025-04-16 15:47:41.660,53,80,57,0,29
2025-04-16 15:47:41.662,49,81,62,0,19
2025-04-16 15:47:41.674,63,87,64,0,6
2025-04-16 15:47:41.681,47,73,50,0,4
2025-04-16 15:47:41.694,46,84,60,0,0
2025-04-16 15:47:41.701,41,79,53,0,0
2025-04-16 15:47:41.725,52,88,53,0,0
2025-04-16 15:47:41.727,47,88,55,0,53
2025-04-16 15:47:41.734,41,89,56,0,157
2025-04-16 15:47:41.741,38,82,63,0,103
2025-04-16 15:47:41.753,53,71,61,0,83
2025-04-16 15:47:41.766,64,90,68,21,19
2025-04-16 15:47:41.774,46,75,53,22,0
2025-04-16 15:47:41.793,45,89,56,42,0
2025-04-16 15:47:41.794,49,80,64,40,0
2025-04-16 15:47:41.806,49,61,58,52,0
2025-04-16 15:47:41.814,53,77,54,50,0
2025-04-16 15:47:41.826,58,76,56,53,0
2025-04-16 15:47:41.834,48,68,55,54,0
2025-04-16 15:47:41.858,45,85,54,59,0
2025-04-16 15:47:41.859,41,78,54,58,0
2025-04-16 15:47:41.866,55,72,59,50,0
2025-04-16 15:47:41.873,36,90,45,55,0
2025-04-16 15:47:41.885,42,88,66,53,3
2025-04-16 15:47:41.894,42,63,50,57,33
2025-04-16 15:47:41.905,70,83,50,50,29
2025-04-16 15:47:41.924,41,72,53,52,43
2025-04-16 15:47:41.925,65,69,40,41,40
2025-04-16 15:47:41.934,46,69,60,53,50
2025-04-16 15:47:41.946,23,69,66,56,48
2025-04-16 15:47:41.954,41,85,38,58,60
2025-04-16 15:47:41.966,53,66,40,47,46
2025-04-16 15:47:41.973,33,66,54,58,54
2025-04-16 15:47:41.993,25,79,58,52,57
2025-04-16 15:47:41.994,51,77,51,50,53
2025-04-16 15:47:42.006,50,53,52,50,46
2025-04-16 15:47:42.018,58,76,47,53,49
2025-04-16 15:47:42.026,27,84,49,57,47
2025-04-16 15:47:42.038,53,68,41,55,47
2025-04-16 15:47:42.060,50,74,64,57,46
2025-04-16 15:47:42.061,62,63,41,59,51
2025-04-16 15:47:42.066,64,82,43,50,35
2025-04-16 15:47:42.077,44,71,56,57,47
2025-04-16 15:47:42.086,62,60,50,33,40
2025-04-16 15:47:42.098,68,97,43,50,53
2025-04-16 15:47:42.105,41,70,55,45,48
2025-04-16 15:47:42.125,68,90,49,53,50
2025-04-16 15:47:42.126,69,76,46,50,49
2025-04-16 15:47:42.138,42,85,35,49,43
2025-04-16 15:47:42.145,29,93,59,45,45
2025-04-16 15:47:42.157,44,86,53,43,63
2025-04-16 15:47:42.165,78,95,27,59,64
2025-04-16 15:47:42.191,52,67,47,32,51
2025-04-16 15:47:42.193,57,75,19,60,52
2025-04-16 15:47:42.197,77,70,39,38,54
2025-04-16 15:47:42.206,43,78,62,43,52
2025-04-16 15:47:42.217,49,79,58,43,46
2025-04-16 15:47:42.225,50,85,14,58,47
2025-04-16 15:47:42.238,27,82,23,42,50
2025-04-16 15:47:42.257,41,59,65,33,38
2025-04-16 15:47:42.258,44,71,45,54,35
2025-04-16 15:47:42.265,38,53,30,34,25
2025-04-16 15:47:42.278,22,82,49,59,32
2025-04-16 15:47:42.290,16,92,60,46,33
2025-04-16 15:47:42.298,45,79,50,52,57
2025-04-16 15:47:42.322,55,85,41,61,40
2025-04-16 15:47:42.324,49,81,50,48,49
2025-04-16 15:47:42.330,54,96,33,62,58
2025-04-16 15:47:42.337,44,75,36,42,34
2025-04-16 15:47:42.349,68,80,32,61,47
2025-04-16 15:47:42.358,58,103,58,36,42
2025-04-16 15:47:42.369,36,78,76,34,41
2025-04-16 15:47:42.387,50,75,58,44,28
2025-04-16 15:47:42.390,27,92,62,33,31
2025-04-16 15:47:42.398,45,67,39,29,48
2025-04-16 15:47:42.410,44,66,50,32,54
2025-04-16 15:47:42.417,50,70,42,48,43
2025-04-16 15:47:42.429,41,80,66,31,36
2025-04-16 15:47:42.454,48,81,46,27,53
2025-04-16 15:47:42.455,40,80,21,62,46
2025-04-16 15:47:42.458,22,75,27,42,40
2025-04-16 15:47:42.469,28,73,53,30,41
2025-04-16 15:47:42.477,34,73,34,69,50
2025-04-16 15:47:42.490,34,90,33,54,46
2025-04-16 15:47:42.501,53,83,64,43,48
2025-04-16 15:47:42.502,53,83,64,43,48
2025-04-16 15:47:42.523,55,78,39,52,35
2025-04-16 15:47:42.524,55,87,21,72,27
2025-04-16 15:47:42.529,36,75,54,47,15
2025-04-16 15:47:42.538,53,77,62,36,50
2025-04-16 15:47:42.549,37,64,49,69,64
2025-04-16 15:47:42.561,30,59,67,23,51
2025-04-16 15:47:42.568,49,57,48,51,40
2025-04-16 15:47:42.588,44,76,31,69,53
2025-04-16 15:47:42.590,37,74,46,64,32
2025-04-16 15:47:42.601,35,56,40,31,39
2025-04-16 15:47:42.609,35,74,53,43,28
2025-04-16 15:47:42.620,44,85,33,70,47
2025-04-16 15:47:42.629,32,67,40,52,35
2025-04-16 15:47:42.654,28,61,52,34,51
2025-04-16 15:47:42.655,33,71,39,42,64
2025-04-16 15:47:42.661,30,71,38,43,32
2025-04-16 15:47:42.669,38,67,43,37,17
2025-04-16 15:47:42.682,31,87,47,41,56
2025-04-16 15:47:42.689,32,76,49,37,40
2025-04-16 15:47:42.701,36,73,20,34,59
2025-04-16 15:47:42.719,40,86,52,50,13
2025-04-16 15:47:42.720,22,57,37,26,34
2025-04-16 15:47:42.730,27,65,35,26,42
2025-04-16 15:47:42.741,33,60,35,53,46
2025-04-16 15:47:42.749,37,57,34,10,26
2025-04-16 15:47:42.761,33,68,32,41,56
2025-04-16 15:47:42.785,29,63,44,38,19
2025-04-16 15:47:42.787,41,62,44,43,50
2025-04-16 15:47:42.789,35,62,34,27,66
2025-04-16 15:47:42.801,25,57,41,53,29
2025-04-16 15:47:42.809,37,52,33,25,3
2025-04-16 15:47:42.822,29,73,42,27,29
2025-04-16 15:47:42.833,33,72,32,46,38
2025-04-16 15:47:42.851,39,62,37,39,54
2025-04-16 15:47:42.853,29,70,33,30,54
2025-04-16 15:47:42.861,21,75,36,32,19
2025-04-16 15:47:42.873,30,73,28,42,61
2025-04-16 15:47:42.881,38,64,22,51,40
2025-04-16 15:47:42.893,34,66,33,49,31
2025-04-16 15:47:42.918,27,58,23,53,41
2025-04-16 15:47:42.919,32,72,29,30,27
2025-04-16 15:47:42.921,30,64,40,50,33
2025-04-16 15:47:42.934,30,70,39,29,28
2025-04-16 15:47:42.941,39,62,39,40,33
2025-04-16 15:47:42.953,18,62,34,39,53
2025-04-16 15:47:42.962,35,64,32,58,39
2025-04-16 15:47:42.981,23,68,36,33,42
2025-04-16 15:47:42.983,25,64,22,34,27
2025-04-16 15:47:42.992,30,63,33,37,48
2025-04-16 15:47:43.000,14,65,44,40,37
2025-04-16 15:47:43.013,16,63,29,39,50
2025-04-16 15:47:43.021,21,54,26,47,36
2025-04-16 15:47:43.048,27,66,38,57,39
2025-04-16 15:47:43.050,37,64,30,48,33
2025-04-16 15:47:43.054,15,59,32,39,57
2025-04-16 15:47:43.061,36,62,22,41,31
2025-04-16 15:47:43.073,20,65,32,37,29
2025-04-16 15:47:43.085,25,57,31,41,40
2025-04-16 15:47:43.093,17,65,28,29,41
2025-04-16 15:47:43.114,19,61,36,26,26
2025-04-16 15:47:43.115,28,63,27,45,44
2025-04-16 15:47:43.125,28,55,23,29,48
2025-04-16 15:47:43.133,10,59,31,51,21
2025-04-16 15:47:43.145,9,62,31,33,33
2025-04-16 15:47:43.153,16,59,34,29,22
2025-04-16 15:47:43.181,10,59,38,34,26
2025-04-16 15:47:43.183,40,55,22,37,27
2025-04-16 15:47:43.185,19,57,23,32,31
2025-04-16 15:47:43.193,0,50,27,25,27
2025-04-16 15:47:43.205,0,60,23,28,34
2025-04-16 15:47:43.213,0,54,26,34,40
2025-04-16 15:47:43.225,0,57,35,30,36
2025-04-16 15:47:43.247,34,54,31,23,22
2025-04-16 15:47:43.248,79,51,29,31,13
2025-04-16 15:47:43.253,168,39,24,25,19
2025-04-16 15:47:43.265,93,39,33,21,27
2025-04-16 15:47:43.272,70,59,29,28,24
2025-04-16 15:47:43.284,21,47,20,31,15
2025-04-16 15:47:43.294,0,81,14,25,22
2025-04-16 15:47:43.312,0,61,21,33,24
2025-04-16 15:47:43.313,0,61,21,33,24
2025-04-16 15:47:43.315,0,16,19,24,21
2025-04-16 15:47:43.326,0,0,28,30,24
2025-04-16 15:47:43.332,0,27,26,33,20
2025-04-16 15:47:43.345,0,129,23,33,22
2025-04-16 15:47:43.357,0,138,23,30,15
2025-04-16 15:47:43.378,0,191,5,32,17
2025-04-16 15:47:43.380,0,119,22,26,28
2025-04-16 15:47:43.385,3,14,36,21,24
2025-04-16 15:47:43.397,17,0,24,25,31
2025-04-16 15:47:43.405,33,0,32,17,22
2025-04-16 15:47:43.417,37,0,12,26,24
2025-04-16 15:47:43.425,45,0,0,36,26
2025-04-16 15:47:43.446,48,0,0,32,24
2025-04-16 15:47:43.448,53,0,0,25,12
2025-04-16 15:47:43.457,57,0,9,18,28
2025-04-16 15:47:43.464,51,0,133,23,20
2025-04-16 15:47:43.476,59,0,99,22,11
2025-04-16 15:47:43.485,56,7,136,21,15
2025-04-16 15:47:43.512,62,18,81,24,33
2025-04-16 15:47:43.513,57,51,0,18,21
2025-04-16 15:47:43.516,56,55,0,15,23
2025-04-16 15:47:43.525,56,85,0,15,29
2025-04-16 15:47:43.537,60,83,0,22,22
2025-04-16 15:47:43.545,59,84,0,20,17
2025-04-16 15:47:43.556,49,87,0,29,22
2025-04-16 15:47:43.577,55,88,0,26,22
2025-04-16 15:47:43.578,49,90,0,24,23
2025-04-16 15:47:43.586,61,89,0,7,15
2025-04-16 15:47:43.596,59,93,0,12,15
2025-04-16 15:47:43.605,61,87,0,14,17
2025-04-16 15:47:43.617,54,88,0,16,19
2025-04-16 15:47:43.642,60,84,18,40,23
2025-04-16 15:47:43.643,54,86,31,25,6
2025-04-16 15:47:43.649,42,98,40,0,13
2025-04-16 15:47:43.657,55,91,48,0,13
2025-04-16 15:47:43.669,60,87,53,0,21
2025-04-16 15:47:43.676,56,93,47,0,18
2025-04-16 15:47:43.689,58,92,56,43,18
2025-04-16 15:47:43.706,56,83,53,84,19
2025-04-16 15:47:43.709,47,83,57,165,15
2025-04-16 15:47:43.717,54,89,55,101,0
2025-04-16 15:47:43.729,46,90,46,43,5
2025-04-16 15:47:43.737,47,90,55,0,21
2025-04-16 15:47:43.749,62,83,57,0,11
2025-04-16 15:47:43.771,60,85,53,0,32
2025-04-16 15:47:43.772,53,94,66,0,23
2025-04-16 15:47:43.776,53,88,61,0,0
2025-04-16 15:47:43.788,50,98,59,0,0
2025-04-16 15:47:43.796,48,88,61,0,0
2025-04-16 15:47:43.808,45,95,57,0,0
2025-04-16 15:47:43.817,48,89,56,0,111
2025-04-16 15:47:43.837,45,98,59,0,94
2025-04-16 15:47:43.838,36,96,59,0,130
2025-04-16 15:47:43.849,44,97,49,1,87
2025-04-16 15:47:43.857,56,96,52,11,0
2025-04-16 15:47:43.869,59,100,52,28,0
2025-04-16 15:47:43.876,50,91,65,36,0
2025-04-16 15:47:43.905,44,100,52,52,0
2025-04-16 15:47:43.907,46,99,62,47,0
2025-04-16 15:47:43.908,69,105,65,52,0
2025-04-16 15:47:43.917,55,100,50,53,0
2025-04-16 15:47:43.929,69,102,57,59,0
2025-04-16 15:47:43.941,55,97,62,57,0
2025-04-16 15:47:43.948,53,114,53,51,0
2025-04-16 15:47:43.972,39,87,55,55,0
2025-04-16 15:47:43.973,55,101,53,59,0
2025-04-16 15:47:43.982,64,98,45,55,5
2025-04-16 15:47:43.989,75,104,40,57,15
2025-04-16 15:47:44.000,39,98,53,49,34
2025-04-16 15:47:44.009,73,94,48,46,33
2025-04-16 15:47:44.020,42,103,53,50,42
2025-04-16 15:47:44.038,25,108,61,57,46
2025-04-16 15:47:44.041,60,110,45,56,50
2025-04-16 15:47:44.048,49,100,52,67,54
2025-04-16 15:47:44.060,57,127,61,64,57
2025-04-16 15:47:44.068,56,141,53,77,64
2025-04-16 15:47:44.080,75,144,64,78,73
2025-04-16 15:47:44.103,77,157,73,82,71
2025-04-16 15:47:44.104,88,165,69,94,75
2025-04-16 15:47:44.113,115,154,71,108,80
2025-04-16 15:47:44.114,115,154,71,108,80
2025-04-16 15:47:44.120,136,191,81,125,100
2025-04-16 15:47:44.133,162,176,104,134,100
2025-04-16 15:47:44.140,127,184,98,137,101
2025-04-16 15:47:44.148,132,168,122,140,93
2025-04-16 15:47:44.168,129,159,110,127,100
2025-04-16 15:47:44.173,136,157,78,135,91
2025-04-16 15:47:44.180,123,148,93,119,99
2025-04-16 15:47:44.192,130,141,75,116,89
2025-04-16 15:47:44.201,114,148,79,109,84
2025-04-16 15:47:44.212,133,116,76,102,90
2025-04-16 15:47:44.234,97,104,92,85,85
2025-04-16 15:47:44.235,106,92,65,91,81
2025-04-16 15:47:44.240,78,100,83,91,78
2025-04-16 15:47:44.253,95,85,80,78,67
2025-04-16 15:47:44.262,110,78,40,88,64
2025-04-16 15:47:44.272,80,85,39,80,70
2025-04-16 15:47:44.281,59,100,67,66,57
2025-04-16 15:47:44.300,107,69,58,74,61
2025-04-16 15:47:44.302,65,59,50,59,61
2025-04-16 15:47:44.312,68,61,46,72,48
2025-04-16 15:47:44.320,69,86,54,72,42
2025-04-16 15:47:44.332,62,91,44,56,61
2025-04-16 15:47:44.341,83,70,35,63,41
2025-04-16 15:47:44.368,70,41,56,57,48
2025-04-16 15:47:44.369,76,44,44,54,54
2025-04-16 15:47:44.372,38,79,65,50,34
2025-04-16 15:47:44.381,43,78,59,45,53
2025-04-16 15:47:44.392,50,65,40,76,48
2025-04-16 15:47:44.400,57,29,48,67,46
2025-04-16 15:47:44.413,52,59,38,49,32
2025-04-16 15:47:44.435,51,75,43,72,47
2025-04-16 15:47:44.436,49,38,66,56,48
2025-04-16 15:47:44.440,39,59,74,30,63
2025-04-16 15:47:44.453,51,52,45,47,59
2025-04-16 15:47:44.460,25,52,48,42,26
2025-04-16 15:47:44.472,42,45,30,45,56
2025-04-16 15:47:44.481,27,42,68,35,44
2025-04-16 15:47:44.501,49,34,53,44,54
2025-04-16 15:47:44.504,50,25,52,22,41
2025-04-16 15:47:44.513,43,52,48,31,54
2025-04-16 15:47:44.525,23,75,49,33,54
2025-04-16 15:47:44.532,46,66,37,34,47
2025-04-16 15:47:44.544,38,42,71,26,59
2025-04-16 15:47:44.566,40,34,35,27,46
2025-04-16 15:47:44.567,47,31,40,30,48
2025-04-16 15:47:44.572,35,37,51,46,23
2025-04-16 15:47:44.584,42,51,20,62,37
2025-04-16 15:47:44.592,57,41,53,60,34
2025-04-16 15:47:44.604,59,30,44,44,41
2025-04-16 15:47:44.612,36,45,45,46,33
2025-04-16 15:47:44.631,18,37,67,25,35
2025-04-16 15:47:44.633,62,43,52,44,47
2025-04-16 15:47:44.645,39,35,72,39,38
2025-04-16 15:47:44.652,43,42,32,50,62
2025-04-16 15:47:44.664,41,51,33,77,24
2025-04-16 15:47:44.672,28,35,29,35,34
2025-04-16 15:47:44.696,50,51,30,66,24
2025-04-16 15:47:44.698,40,48,40,55,30
2025-04-16 15:47:44.704,40,25,35,33,39
2025-04-16 15:47:44.712,33,46,35,59,21
2025-04-16 15:47:44.724,45,48,41,66,50
2025-04-16 15:47:44.732,22,14,27,39,41
2025-04-16 15:47:44.744,39,39,46,38,48
2025-04-16 15:47:44.764,37,34,48,25,60
2025-04-16 15:47:44.766,39,41,22,59,34
2025-04-16 15:47:44.777,42,46,43,29,22
2025-04-16 15:47:44.784,41,45,47,50,43
2025-04-16 15:47:44.796,23,30,26,24,59
2025-04-16 15:47:44.804,40,36,32,63,35
2025-04-16 15:47:44.832,34,31,39,58,29
2025-04-16 15:47:44.834,27,33,29,59,34
2025-04-16 15:47:44.836,34,45,46,44,46
2025-04-16 15:47:44.844,27,45,60,24,25
2025-04-16 15:47:44.856,27,30,41,31,53
2025-04-16 15:47:44.864,26,31,49,36,62
2025-04-16 15:47:44.877,22,32,54,56,58
2025-04-16 15:47:44.898,32,47,51,26,36
2025-04-16 15:47:44.900,43,40,31,52,69
2025-04-16 15:47:44.904,30,47,26,72,38
2025-04-16 15:47:44.916,37,35,32,39,34
2025-04-16 15:47:44.924,37,33,54,29,33
2025-04-16 15:47:44.936,34,43,44,57,36
2025-04-16 15:47:44.944,33,32,44,69,38
2025-04-16 15:47:44.964,45,45,42,44,34
2025-04-16 15:47:44.965,39,31,44,43,31
2025-04-16 15:47:44.976,41,43,27,45,26
2025-04-16 15:47:44.984,46,41,26,40,33
2025-04-16 15:47:44.997,42,42,36,45,65
2025-04-16 15:47:45.004,37,40,39,46,52
2025-04-16 15:47:45.038,44,64,28,42,63
2025-04-16 15:47:45.040,44,60,34,53,48
2025-04-16 15:47:45.041,42,57,44,43,39
2025-04-16 15:47:45.048,62,57,31,58,42
2025-04-16 15:47:45.057,59,59,34,58,24
2025-04-16 15:47:45.068,66,54,38,47,44
2025-04-16 15:47:45.077,56,66,40,48,51
2025-04-16 15:47:45.106,65,73,45,50,53
2025-04-16 15:47:45.108,66,79,48,61,48
2025-04-16 15:47:45.109,67,76,50,49,46
2025-04-16 15:47:45.120,71,73,39,66,52
2025-04-16 15:47:45.122,71,73,39,66,52
2025-04-16 15:47:45.127,88,89,46,60,59
2025-04-16 15:47:45.136,94,96,49,55,59
2025-04-16 15:47:45.148,92,99,68,72,57
2025-04-16 15:47:45.171,101,101,68,71,77
2025-04-16 15:47:45.173,93,107,58,89,72
2025-04-16 15:47:45.176,105,111,75,76,75
2025-04-16 15:47:45.188,102,121,60,55,90
2025-04-16 15:47:45.196,113,109,72,70,81
2025-04-16 15:47:45.208,123,122,80,78,74
2025-04-16 15:47:45.216,122,124,76,84,83
2025-04-16 15:47:45.236,110,114,72,74,87
2025-04-16 15:47:45.238,116,128,76,66,85
2025-04-16 15:47:45.248,134,121,79,67,99
2025-04-16 15:47:45.256,128,121,84,77,95
2025-04-16 15:47:45.267,154,114,77,80,80
2025-04-16 15:47:45.280,141,117,80,75,94
2025-04-16 15:47:45.303,102,116,83,75,87
2025-04-16 15:47:45.304,89,121,81,76,88
2025-04-16 15:47:45.309,64,115,84,85,103
2025-04-16 15:47:45.320,73,119,84,85,89
2025-04-16 15:47:45.328,167,118,82,69,90
2025-04-16 15:47:45.339,211,113,73,66,78
2025-04-16 15:47:45.348,259,97,79,72,77
2025-04-16 15:47:45.369,222,103,77,60,92
2025-04-16 15:47:45.370,115,122,75,73,84
2025-04-16 15:47:45.380,84,119,70,83,79
2025-04-16 15:47:45.387,0,124,79,73,85
2025-04-16 15:47:45.399,0,108,66,84,97
2025-04-16 15:47:45.408,10,49,68,77,79
2025-04-16 15:47:45.435,20,28,74,69,74
2025-04-16 15:47:45.436,61,44,82,63,77
2025-04-16 15:47:45.440,60,98,77,71,78
2025-04-16 15:47:45.448,60,203,54,68,87
2025-04-16 15:47:45.460,57,195,70,65,85
2025-04-16 15:47:45.468,79,216,52,66,72
2025-04-16 15:47:45.479,80,163,64,74,83
2025-04-16 15:47:45.501,101,9,76,66,74
2025-04-16 15:47:45.503,112,0,82,69,82
2025-04-16 15:47:45.511,129,0,63,74,80
2025-04-16 15:47:45.520,129,0,39,74,80
2025-04-16 15:47:45.528,142,0,0,74,69
2025-04-16 15:47:45.540,141,6,0,59,72
2025-04-16 15:47:45.547,142,28,46,71,64
2025-04-16 15:47:45.568,144,23,118,68,65
2025-04-16 15:47:45.571,146,21,191,63,73
2025-04-16 15:47:45.579,142,28,155,61,73
2025-04-16 15:47:45.592,143,45,158,55,63
2025-04-16 15:47:45.600,145,62,80,64,57
2025-04-16 15:47:45.612,138,89,0,50,71
2025-04-16 15:47:45.633,135,88,0,53,57
2025-04-16 15:47:45.634,140,99,0,48,68
2025-04-16 15:47:45.640,132,107,0,48,74
2025-04-16 15:47:45.652,141,113,0,50,75
2025-04-16 15:47:45.659,131,111,0,55,70
2025-04-16 15:47:45.672,137,102,0,57,79
2025-04-16 15:47:45.680,126,117,0,46,70
2025-04-16 15:47:45.699,142,111,0,30,65
2025-04-16 15:47:45.701,130,112,0,39,61
2025-04-16 15:47:45.712,135,109,30,55,81
2025-04-16 15:47:45.720,128,117,40,57,58
2025-04-16 15:47:45.732,141,108,59,71,49
2025-04-16 15:47:45.740,130,116,67,44,52
2025-04-16 15:47:45.766,134,117,81,17,59
2025-04-16 15:47:45.767,124,113,80,1,61
2025-04-16 15:47:45.772,141,103,91,0,49
2025-04-16 15:47:45.780,151,108,73,34,62
2025-04-16 15:47:45.792,136,104,99,117,59
2025-04-16 15:47:45.799,135,109,95,131,57
2025-04-16 15:47:45.812,142,112,101,211,45
2025-04-16 15:47:45.834,133,114,89,96,31
2025-04-16 15:47:45.836,123,115,91,32,50
2025-04-16 15:47:45.840,132,101,95,0,57
2025-04-16 15:47:45.851,132,111,87,0,52
2025-04-16 15:47:45.864,125,106,95,0,72
2025-04-16 15:47:45.872,119,109,88,0,37
2025-04-16 15:47:45.902,135,124,93,0,0
2025-04-16 15:47:45.903,139,123,106,0,0
2025-04-16 15:47:45.905,127,116,97,0,0
2025-04-16 15:47:45.912,129,121,89,0,74
2025-04-16 15:47:45.923,130,104,93,0,180
2025-04-16 15:47:45.925,130,104,93,0,180
2025-04-16 15:47:45.932,118,106,93,10,188
2025-04-16 15:47:45.943,115,93,100,35,109
2025-04-16 15:47:45.967,129,96,96,48,0
2025-04-16 15:47:45.968,136,111,91,67,0
2025-04-16 15:47:45.972,122,103,99,77,0
2025-04-16 15:47:45.983,120,105,95,83,0
2025-04-16 15:47:45.991,109,95,87,86,0
2025-04-16 15:47:46.004,137,87,101,92,0
2025-04-16 15:47:46.011,149,104,99,94,0
2025-04-16 15:47:46.034,123,114,104,90,0
2025-04-16 15:47:46.037,141,108,98,98,0
2025-04-16 15:47:46.044,127,104,93,93,0
2025-04-16 15:47:46.052,126,103,106,102,16
2025-04-16 15:47:46.064,145,102,90,94,31
2025-04-16 15:47:46.071,143,115,88,100,57
2025-04-16 15:47:46.102,132,120,97,99,59
2025-04-16 15:47:46.104,145,98,89,91,79
2025-04-16 15:47:46.105,153,104,84,103,81
2025-04-16 15:47:46.115,152,113,89,104,85
2025-04-16 15:47:46.123,148,112,74,102,92
2025-04-16 15:47:46.135,143,113,86,109,89
2025-04-16 15:47:46.142,158,113,77,102,97
2025-04-16 15:47:46.169,137,103,81,112,98
2025-04-16 15:47:46.170,155,117,77,98,98
2025-04-16 15:47:46.175,147,111,89,103,104
2025-04-16 15:47:46.183,136,103,104,103,103
2025-04-16 15:47:46.195,160,112,100,99,91
2025-04-16 15:47:46.203,148,100,93,111,105
2025-04-16 15:47:46.216,158,102,85,104,101
2025-04-16 15:47:46.235,160,122,93,110,101
2025-04-16 15:47:46.236,152,120,96,114,103
2025-04-16 15:47:46.244,163,120,92,115,102
2025-04-16 15:47:46.256,163,108,99,109,103
2025-04-16 15:47:46.263,170,119,97,104,101
2025-04-16 15:47:46.276,157,114,92,105,97
2025-04-16 15:47:46.284,152,129,95,106,96
2025-04-16 15:47:46.305,166,118,89,107,100
2025-04-16 15:47:46.307,165,116,91,104,98
2025-04-16 15:47:46.316,161,121,92,106,104
2025-04-16 15:47:46.327,164,129,84,105,106
2025-04-16 15:47:46.336,161,128,92,108,100
2025-04-16 15:47:46.343,169,138,88,112,108
2025-04-16 15:47:46.370,170,129,95,107,102
2025-04-16 15:47:46.371,177,120,93,112,107
2025-04-16 15:47:46.375,177,120,93,112,107
2025-04-16 15:47:46.388,172,133,96,115,117
2025-04-16 15:47:46.395,165,138,99,102,113
2025-04-16 15:47:46.407,183,129,99,107,104
2025-04-16 15:47:46.415,183,144,85,111,114
2025-04-16 15:47:46.435,187,136,94,117,110
2025-04-16 15:47:46.436,192,143,98,111,101
2025-04-16 15:47:46.446,187,134,104,111,114
2025-04-16 15:47:46.455,178,136,96,124,103
2025-04-16 15:47:46.466,189,149,107,118,111
2025-04-16 15:47:46.475,187,140,106,122,114
2025-04-16 15:47:46.501,189,144,100,115,103
2025-04-16 15:47:46.503,198,158,115,114,113
2025-04-16 15:47:46.507,192,151,103,125,109
2025-04-16 15:47:46.518,200,145,112,124,109
2025-04-16 15:47:46.527,199,159,110,123,113
2025-04-16 15:47:46.531,199,159,110,123,113
2025-04-16 15:47:46.536,204,164,116,122,111
2025-04-16 15:47:46.547,205,155,105,116,117
2025-04-16 15:47:46.571,204,158,112,120,116
2025-04-16 15:47:46.572,210,159,105,128,121
2025-04-16 15:47:46.575,205,166,110,118,109
2025-04-16 15:47:46.588,199,167,122,124,122
2025-04-16 15:47:46.595,213,166,117,120,116
2025-04-16 15:47:46.607,205,176,122,124,118
2025-04-16 15:47:46.615,203,162,116,125,109
2025-04-16 15:47:46.638,212,166,107,130,122
2025-04-16 15:47:46.639,210,174,111,122,122
2025-04-16 15:47:46.648,203,173,105,122,116
2025-04-16 15:47:46.660,203,171,110,113,108
2025-04-16 15:47:46.667,194,170,104,111,111
2025-04-16 15:47:46.678,201,178,114,120,114
2025-04-16 15:47:46.703,190,172,109,116,112
2025-04-16 15:47:46.704,196,176,113,116,114
2025-04-16 15:47:46.706,194,181,114,109,105
2025-04-16 15:47:46.719,204,167,108,107,114
2025-04-16 15:47:46.727,190,184,117,105,123
2025-04-16 15:47:46.739,204,175,108,121,104
2025-04-16 15:47:46.746,182,174,116,110,106
2025-04-16 15:47:46.769,191,175,107,115,110
2025-04-16 15:47:46.771,189,179,109,120,108
2025-04-16 15:47:46.779,189,179,108,111,107
2025-04-16 15:47:46.787,185,182,109,115,105
2025-04-16 15:47:46.799,190,186,107,112,112
2025-04-16 15:47:46.807,189,177,112,99,110
2025-04-16 15:47:46.838,185,180,105,100,103
2025-04-16 15:47:46.840,183,179,109,112,113
2025-04-16 15:47:46.842,186,173,110,97,97
2025-04-16 15:47:46.847,180,173,104,109,103
2025-04-16 15:47:46.859,179,182,106,118,108
2025-04-16 15:47:46.867,177,178,108,104,103
2025-04-16 15:47:46.880,194,170,111,113,109
2025-04-16 15:47:46.887,183,178,113,102,117
2025-04-16 15:47:46.908,175,180,104,99,114
2025-04-16 15:47:46.910,186,186,117,108,116
2025-04-16 15:47:46.919,175,174,105,103,105
2025-04-16 15:47:46.926,177,177,107,105,113
2025-04-16 15:47:46.940,182,177,107,106,107
2025-04-16 15:47:46.946,185,179,95,91,110
2025-04-16 15:47:46.973,177,175,103,99,100
2025-04-16 15:47:46.974,183,176,106,106,103
2025-04-16 15:47:46.979,175,176,108,99,114
2025-04-16 15:47:46.987,172,178,114,112,107
2025-04-16 15:47:46.999,177,176,102,108,108
2025-04-16 15:47:47.007,174,182,107,93,93
2025-04-16 15:47:47.019,175,168,90,111,109
2025-04-16 15:47:47.040,170,173,102,97,110
2025-04-16 15:47:47.042,177,176,110,98,97
2025-04-16 15:47:47.051,178,169,110,107,109
2025-04-16 15:47:47.058,171,169,96,99,108
2025-04-16 15:47:47.071,169,166,104,102,104
2025-04-16 15:47:47.079,172,173,96,93,93
2025-04-16 15:47:47.106,172,173,100,103,96
2025-04-16 15:47:47.107,168,168,103,97,98
2025-04-16 15:47:47.111,172,172,98,102,100
2025-04-16 15:47:47.118,172,179,105,101,104
2025-04-16 15:47:47.131,165,165,104,101,100
2025-04-16 15:47:47.139,175,170,96,96,103
2025-04-16 15:47:47.150,170,176,98,98,104
2025-04-16 15:47:47.173,169,172,100,93,101
2025-04-16 15:47:47.175,167,177,95,101,98
2025-04-16 15:47:47.179,165,177,99,94,105
2025-04-16 15:47:47.191,167,168,104,101,98
2025-04-16 15:47:47.201,170,170,97,101,95
2025-04-16 15:47:47.212,169,173,102,99,97
2025-04-16 15:47:47.219,167,168,101,102,99
2025-04-16 15:47:47.243,157,167,97,97,97
2025-04-16 15:47:47.245,165,172,105,104,98
2025-04-16 15:47:47.252,161,167,96,95,100
2025-04-16 15:47:47.259,164,169,99,98,93
2025-04-16 15:47:47.270,159,168,99,97,110
2025-04-16 15:47:47.279,159,168,95,93,97
2025-04-16 15:47:47.291,160,168,92,91,94
2025-04-16 15:47:47.309,159,176,95,102,95
2025-04-16 15:47:47.311,164,168,91,97,104
2025-04-16 15:47:47.319,158,168,94,91,94
2025-04-16 15:47:47.330,157,164,92,95,92
2025-04-16 15:47:47.342,155,166,92,103,88
2025-04-16 15:47:47.351,158,174,96,93,104
2025-04-16 15:47:47.375,155,170,97,96,99
2025-04-16 15:47:47.377,157,167,97,103,95
2025-04-16 15:47:47.383,167,169,93,87,106
2025-04-16 15:47:47.390,162,169,92,92,98
2025-04-16 15:47:47.402,153,162,96,99,95
2025-04-16 15:47:47.410,145,169,99,97,99
2025-04-16 15:47:47.423,126,164,96,93,103
2025-04-16 15:47:47.440,135,167,97,93,96
2025-04-16 15:47:47.443,154,169,96,97,97
2025-04-16 15:47:47.451,178,169,94,102,93
2025-04-16 15:47:47.462,212,174,90,103,96
2025-04-16 15:47:47.471,193,166,97,99,107
2025-04-16 15:47:47.482,178,169,93,111,103
2025-04-16 15:47:47.506,168,167,94,116,102
2025-04-16 15:47:47.508,127,176,92,115,109
2025-04-16 15:47:47.510,133,171,98,129,110
2025-04-16 15:47:47.523,142,150,100,124,111
2025-04-16 15:47:47.534,153,136,96,125,110
2025-04-16 15:47:47.536,153,136,96,125,110
2025-04-16 15:47:47.542,170,133,99,122,117
2025-04-16 15:47:47.551,165,179,97,120,115
2025-04-16 15:47:47.574,163,161,86,118,104
2025-04-16 15:47:47.575,167,198,85,116,105
2025-04-16 15:47:47.583,165,171,88,115,111
2025-04-16 15:47:47.591,173,129,92,112,110
2025-04-16 15:47:47.602,180,107,97,116,106
2025-04-16 15:47:47.614,179,71,96,109,107
2025-04-16 15:47:47.641,183,75,91,119,105
2025-04-16 15:47:47.643,188,89,68,115,102
2025-04-16 15:47:47.644,187,103,63,117,102
2025-04-16 15:47:47.655,194,116,62,111,99
2025-04-16 15:47:47.663,195,119,87,112,111
2025-04-16 15:47:47.675,201,127,138,114,105
2025-04-16 15:47:47.682,216,127,144,121,114
2025-04-16 15:47:47.709,218,145,155,128,112
2025-04-16 15:47:47.710,227,156,146,127,122
2025-04-16 15:47:47.714,237,172,80,131,128
2025-04-16 15:47:47.722,241,180,75,137,133
2025-04-16 15:47:47.734,251,194,47,135,142
2025-04-16 15:47:47.742,251,200,54,143,143
2025-04-16 15:47:47.754,263,209,84,143,144
2025-04-16 15:47:47.778,272,219,94,148,153
2025-04-16 15:47:47.780,280,216,107,152,155
2025-04-16 15:47:47.782,282,225,115,159,164
2025-04-16 15:47:47.797,296,239,118,152,169
2025-04-16 15:47:47.804,308,248,121,161,172
2025-04-16 15:47:47.815,318,253,137,166,177
2025-04-16 15:47:47.823,329,261,151,174,191
2025-04-16 15:47:47.847,340,271,164,198,203
2025-04-16 15:47:47.848,352,277,178,192,206
2025-04-16 15:47:47.855,362,284,192,193,211
2025-04-16 15:47:47.863,373,291,198,187,212
2025-04-16 15:47:47.875,384,296,206,158,224
2025-04-16 15:47:47.882,410,306,217,165,227
2025-04-16 15:47:47.895,428,322,227,224,245
2025-04-16 15:47:47.917,439,325,241,266,262
2025-04-16 15:47:47.918,454,334,249,322,266
2025-04-16 15:47:47.927,468,341,254,308,270
2025-04-16 15:47:47.935,474,348,255,282,271
2025-04-16 15:47:47.946,483,361,261,264,290
2025-04-16 15:47:47.955,500,365,263,194,289
2025-04-16 15:47:47.983,509,372,272,190,315
2025-04-16 15:47:47.984,520,374,277,205,319
2025-04-16 15:47:47.986,531,380,288,221,302
2025-04-16 15:47:47.995,538,390,292,255,293
2025-04-16 15:47:48.006,550,406,299,262,277
2025-04-16 15:47:48.014,560,405,302,269,310
2025-04-16 15:47:48.026,569,410,302,273,369
2025-04-16 15:47:48.048,573,408,298,284,385
2025-04-16 15:47:48.049,568,410,311,285,431
2025-04-16 15:47:48.054,590,414,314,302,408
2025-04-16 15:47:48.066,592,418,308,308,368
2025-04-16 15:47:48.074,600,422,322,323,337
2025-04-16 15:47:48.087,600,419,319,330,283
2025-04-16 15:47:48.095,603,417,325,339,284
2025-04-16 15:47:48.113,612,426,326,338,308
2025-04-16 15:47:48.115,609,424,328,342,319
2025-04-16 15:47:48.127,613,422,325,344,341
2025-04-16 15:47:48.134,619,428,330,348,344
2025-04-16 15:47:48.146,612,421,326,350,345
2025-04-16 15:47:48.155,616,422,329,346,344
2025-04-16 15:47:48.179,615,423,319,348,349
2025-04-16 15:47:48.181,600,422,324,342,353
2025-04-16 15:47:48.186,617,433,318,340,353
2025-04-16 15:47:48.195,598,420,322,345,370
2025-04-16 15:47:48.207,605,421,317,339,374
2025-04-16 15:47:48.215,594,420,317,339,376
2025-04-16 15:47:48.226,597,418,306,335,375
2025-04-16 15:47:48.246,596,423,316,334,376
2025-04-16 15:47:48.248,593,409,304,324,369
2025-04-16 15:47:48.258,588,401,319,324,370
2025-04-16 15:47:48.266,582,401,300,326,372
2025-04-16 15:47:48.278,562,394,298,320,369
2025-04-16 15:47:48.286,565,406,294,321,370
2025-04-16 15:47:48.315,560,394,296,317,375
2025-04-16 15:47:48.316,557,403,301,312,359
2025-04-16 15:47:48.318,559,400,284,320,358
2025-04-16 15:47:48.327,555,392,289,310,357
2025-04-16 15:47:48.340,545,395,278,313,350
2025-04-16 15:47:48.346,552,390,284,314,347
2025-04-16 15:47:48.359,553,389,284,309,352
2025-04-16 15:47:48.383,553,392,271,312,346
2025-04-16 15:47:48.385,557,396,287,312,350
2025-04-16 15:47:48.387,548,396,280,313,346
2025-04-16 15:47:48.398,542,386,292,299,349
2025-04-16 15:47:48.406,551,396,286,308,345
2025-04-16 15:47:48.419,550,400,286,309,349
2025-04-16 15:47:48.427,557,389,289,308,347
2025-04-16 15:47:48.449,557,395,279,303,350
2025-04-16 15:47:48.451,557,390,290,308,349
2025-04-16 15:47:48.459,559,395,291,311,351
2025-04-16 15:47:48.466,556,402,287,309,347
2025-04-16 15:47:48.478,557,407,298,306,354
2025-04-16 15:47:48.486,552,393,286,313,346
2025-04-16 15:47:48.498,552,400,290,309,350
2025-04-16 15:47:48.516,549,402,297,321,351
2025-04-16 15:47:48.519,567,399,295,314,356
2025-04-16 15:47:48.527,574,402,295,314,355
2025-04-16 15:47:48.538,569,410,293,321,361
2025-04-16 15:47:48.542,569,410,293,321,361
2025-04-16 15:47:48.546,586,419,308,323,364
2025-04-16 15:47:48.557,585,413,312,327,361
2025-04-16 15:47:48.585,590,421,291,317,368
2025-04-16 15:47:48.586,598,410,295,332,362
2025-04-16 15:47:48.590,589,411,311,333,366
2025-04-16 15:47:48.599,601,417,297,327,370
2025-04-16 15:47:48.610,588,425,306,333,372
2025-04-16 15:47:48.619,593,415,321,324,379
2025-04-16 15:47:48.630,610,416,319,319,370
2025-04-16 15:47:48.653,588,412,319,323,368
2025-04-16 15:47:48.654,589,420,304,329,369
2025-04-16 15:47:48.658,586,416,303,332,368
2025-04-16 15:47:48.670,590,420,308,317,372
2025-04-16 15:47:48.677,595,410,298,323,374
2025-04-16 15:47:48.690,592,413,302,323,369
2025-04-16 15:47:48.698,589,414,306,317,361
2025-04-16 15:47:48.718,588,411,300,323,365
2025-04-16 15:47:48.720,580,409,299,315,361
2025-04-16 15:47:48.731,590,414,310,326,368
2025-04-16 15:47:48.737,583,418,300,312,366
2025-04-16 15:47:48.750,581,411,300,324,360
2025-04-16 15:47:48.758,585,410,295,319,364
2025-04-16 15:47:48.786,592,410,312,316,368
2025-04-16 15:47:48.787,586,418,309,335,366
2025-04-16 15:47:48.790,596,427,307,330,371
2025-04-16 15:47:48.797,610,428,328,328,372
2025-04-16 15:47:48.809,620,436,319,349,380
2025-04-16 15:47:48.818,624,446,327,343,375
2025-04-16 15:47:48.830,630,445,328,358,385
2025-04-16 15:47:48.852,640,442,331,348,401
2025-04-16 15:47:48.854,643,459,338,360,401
2025-04-16 15:47:48.857,647,463,348,342,412
2025-04-16 15:47:48.870,655,451,353,342,409
2025-04-16 15:47:48.878,655,452,340,355,402
2025-04-16 15:47:48.891,646,452,337,345,404
2025-04-16 15:47:48.898,652,458,341,352,403
2025-04-16 15:47:48.919,648,451,340,354,414
2025-04-16 15:47:48.920,653,458,339,358,411
2025-04-16 15:47:48.930,647,451,333,353,417
2025-04-16 15:47:48.943,647,453,344,350,405
2025-04-16 15:47:48.950,659,454,343,363,406
2025-04-16 15:47:48.961,657,456,342,364,411
2025-04-16 15:47:48.985,657,457,347,366,408
2025-04-16 15:47:48.987,662,446,346,356,419
2025-04-16 15:47:48.990,660,455,341,363,412
2025-04-16 15:47:49.002,648,451,343,357,410
2025-04-16 15:47:49.010,652,450,336,362,416
2025-04-16 15:47:49.022,648,437,343,359,414
2025-04-16 15:47:49.030,640,454,334,347,396
2025-04-16 15:47:49.052,630,448,324,344,401
2025-04-16 15:47:49.053,626,438,339,350,403
2025-04-16 15:47:49.062,632,433,336,336,403
2025-04-16 15:47:49.069,625,438,335,341,390
2025-04-16 15:47:49.081,619,434,330,330,397
2025-04-16 15:47:49.090,613,434,332,340,398
2025-04-16 15:47:49.119,621,434,321,329,399
2025-04-16 15:47:49.121,616,438,327,322,391
2025-04-16 15:47:49.122,617,438,335,318,387
2025-04-16 15:47:49.130,606,439,328,324,388
2025-04-16 15:47:49.143,612,443,332,334,406
2025-04-16 15:47:49.150,622,438,330,317,396
2025-04-16 15:47:49.161,621,439,335,319,391
2025-04-16 15:47:49.187,618,433,333,324,400
2025-04-16 15:47:49.189,624,450,343,323,393
2025-04-16 15:47:49.190,623,452,331,332,397
2025-04-16 15:47:49.203,630,456,347,329,408
2025-04-16 15:47:49.210,630,453,339,321,405
2025-04-16 15:47:49.222,634,462,349,329,409
2025-04-16 15:47:49.230,638,464,356,322,416
2025-04-16 15:47:49.255,656,469,358,330,428
2025-04-16 15:47:49.257,657,474,356,333,428
2025-04-16 15:47:49.261,662,483,366,336,436
2025-04-16 15:47:49.274,678,480,372,331,432
2025-04-16 15:47:49.281,682,490,375,339,435
2025-04-16 15:47:49.294,693,490,385,340,451
2025-04-16 15:47:49.301,705,504,394,350,452
2025-04-16 15:47:49.323,712,504,394,351,485
2025-04-16 15:47:49.325,723,520,402,356,471
2025-04-16 15:47:49.334,741,532,407,362,484
2025-04-16 15:47:49.342,757,541,422,376,500
2025-04-16 15:47:49.354,767,545,427,388,495
2025-04-16 15:47:49.362,786,556,436,390,518
2025-04-16 15:47:49.390,808,572,460,391,529
2025-04-16 15:47:49.391,826,583,464,404,538
2025-04-16 15:47:49.393,852,599,474,413,566
2025-04-16 15:47:49.402,874,615,491,420,569
2025-04-16 15:47:49.414,901,624,504,437,592
2025-04-16 15:47:49.421,924,639,521,442,599
2025-04-16 15:47:49.434,946,653,533,458,627
2025-04-16 15:47:49.456,962,667,550,468,647
2025-04-16 15:47:49.458,994,692,568,482,659
2025-04-16 15:47:49.462,1033,706,591,489,681
2025-04-16 15:47:49.474,1056,718,600,499,701
2025-04-16 15:47:49.482,1103,741,619,517,712
2025-04-16 15:47:49.494,1129,756,645,536,742
2025-04-16 15:47:49.501,1128,779,660,549,760
2025-04-16 15:47:49.525,1144,797,675,562,778
2025-04-16 15:47:49.526,1147,821,705,583,799
2025-04-16 15:47:49.534,1213,849,729,595,814
2025-04-16 15:47:49.545,1322,874,748,617,839
2025-04-16 15:47:49.547,1322,874,748,617,839
2025-04-16 15:47:49.554,1387,904,793,655,881
2025-04-16 15:47:49.566,1365,913,791,656,884
2025-04-16 15:47:49.573,1281,940,809,677,870
2025-04-16 15:47:49.593,1281,961,821,690,869
2025-04-16 15:47:49.595,1255,1001,850,725,891
2025-04-16 15:47:49.606,1313,1036,897,763,921
2025-04-16 15:47:49.613,1394,1036,924,785,956
2025-04-16 15:47:49.626,1444,1055,948,796,983
2025-04-16 15:47:49.634,1477,1072,965,816,1006
2025-04-16 15:47:49.659,1478,1110,970,817,1023
2025-04-16 15:47:49.660,1472,1175,967,820,1028
2025-04-16 15:47:49.666,1460,1169,963,812,1011
2025-04-16 15:47:49.673,1459,1167,948,811,997
2025-04-16 15:47:49.690,1461,1129,947,801,1008
2025-04-16 15:47:49.693,1462,1059,950,791,1001
2025-04-16 15:47:49.705,1458,1031,942,790,990
2025-04-16 15:47:49.727,1452,981,923,781,980
2025-04-16 15:47:49.729,1434,986,898,770,974
2025-04-16 15:47:49.734,1417,995,849,757,954
2025-04-16 15:47:49.746,1399,990,842,752,940
2025-04-16 15:47:49.754,1386,989,856,745,934
2025-04-16 15:47:49.765,1373,973,892,736,924
2025-04-16 15:47:49.774,1363,968,926,725,921
2025-04-16 15:47:49.797,1345,960,899,719,902
2025-04-16 15:47:49.799,1327,961,869,715,893
2025-04-16 15:47:49.807,1308,958,837,710,886
2025-04-16 15:47:49.818,1301,956,766,698,872
2025-04-16 15:47:49.827,1284,952,746,699,862
2025-04-16 15:47:49.838,1272,952,741,683,856
2025-04-16 15:47:49.846,1260,938,736,685,854
