Timestamp,PPG1,PPG2,PPG3,PPG4,PPG5
2025-04-16 17:01:49.413,108559,15487,20922,93896,118665
2025-04-16 17:01:49.445,108575,15486,20925,93897,118690
2025-04-16 17:01:49.447,108596,15488,20932,93913,118712
2025-04-16 17:01:49.447,108604,15493,20932,93930,118724
2025-04-16 17:01:49.448,108617,15497,20928,93943,118740
2025-04-16 17:01:49.449,108630,15496,20934,93957,118753
2025-04-16 17:01:49.450,108638,15497,20936,93975,118771
2025-04-16 17:01:49.451,108642,15498,20933,93971,118756
2025-04-16 17:01:49.452,108645,15502,20942,93947,118751
2025-04-16 17:01:49.453,108666,15503,20941,93966,118743
2025-04-16 17:01:49.454,108655,15506,20945,93968,118753
2025-04-16 17:01:49.455,108666,15512,20947,93975,118767
2025-04-16 17:01:49.461,108682,15520,20953,93989,118765
2025-04-16 17:01:49.470,108695,15522,20959,93985,118794
2025-04-16 17:01:49.481,108701,15525,20962,93996,118790
2025-04-16 17:01:49.493,108708,15530,20962,94014,118808
2025-04-16 17:01:49.870,108720,15533,20971,94000,118804
2025-04-16 17:01:49.872,108730,15540,20972,94034,118804
2025-04-16 17:01:49.873,108750,15538,20977,94024,118818
2025-04-16 17:01:49.874,108748,15539,20979,94030,118831
2025-04-16 17:01:49.876,108757,15543,20988,94046,118842
2025-04-16 17:01:49.877,108774,15552,20992,94045,118846
2025-04-16 17:01:49.879,108776,15556,20995,94071,118841
2025-04-16 17:01:49.880,108792,15559,21008,94078,118876
2025-04-16 17:01:49.882,108800,15565,21015,94098,118889
2025-04-16 17:01:49.884,108820,15572,21021,94115,118931
2025-04-16 17:01:49.885,108836,15581,21030,94133,118939
2025-04-16 17:01:49.886,108838,15585,21035,94136,118945
2025-04-16 17:01:49.887,108862,15592,21045,94156,118962
2025-04-16 17:01:49.888,108891,15595,21050,94171,118994
2025-04-16 17:01:49.890,108904,15599,21055,94181,118989
2025-04-16 17:01:49.891,108910,15601,21064,94192,118995
2025-04-16 17:01:49.893,108922,15613,21073,94179,118982
2025-04-16 17:01:49.895,108931,15620,21083,94189,118988
2025-04-16 17:01:49.896,108949,15629,21094,94195,118988
2025-04-16 17:01:49.898,108967,15638,21101,94209,119031
2025-04-16 17:01:49.899,108995,15650,21115,94231,119050
2025-04-16 17:01:49.901,109013,15654,21125,94245,119054
2025-04-16 17:01:49.902,109013,15662,21132,94262,119063
2025-04-16 17:01:49.903,108997,15662,21131,94275,119058
2025-04-16 17:01:49.904,109001,15668,21140,94251,119057
2025-04-16 17:01:49.905,108985,15677,21144,94255,119060
2025-04-16 17:01:49.906,108972,15675,21142,94263,119058
2025-04-16 17:01:49.907,108958,15673,21134,94245,119056
2025-04-16 17:01:49.908,108949,15667,21133,94242,119043
2025-04-16 17:01:49.909,108939,15659,21123,94251,119054
2025-04-16 17:01:49.909,108925,15659,21111,94237,119023
2025-04-16 17:01:49.910,108906,15648,21106,94222,119021
2025-04-16 17:01:49.911,108887,15641,21088,94222,118998
2025-04-16 17:01:49.912,108878,15629,21081,94209,118993
2025-04-16 17:01:49.912,108884,15632,21074,94218,118994
2025-04-16 17:01:49.913,108882,15626,21064,94217,118990
2025-04-16 17:01:49.914,108872,15623,21066,94216,118999
2025-04-16 17:01:49.930,108890,15621,21068,94224,119005
2025-04-16 17:01:49.931,108889,15623,21063,94231,118989
2025-04-16 17:01:49.932,108893,15624,21064,94241,119009
2025-04-16 17:01:49.933,108908,15627,21067,94245,119033
2025-04-16 17:01:49.933,108926,15630,21062,94253,119036
2025-04-16 17:01:49.934,108929,15629,21068,94283,119052
2025-04-16 17:01:49.935,108947,15636,21073,94287,119057
2025-04-16 17:01:49.945,108977,15639,21084,94299,119066
2025-04-16 17:01:49.956,108974,15641,21084,94320,119094
2025-04-16 17:01:49.965,108999,15647,21095,94342,119108
2025-04-16 17:01:49.976,109002,15655,21098,94341,119132
2025-04-16 17:01:49.992,109007,15661,21106,94359,119138
2025-04-16 17:01:49.997,109024,15660,21113,94369,119152
2025-04-16 17:01:50.005,109023,15667,21119,94377,119164
2025-04-16 17:01:50.017,109031,15667,21120,94366,119163
2025-04-16 17:01:50.025,109038,15669,21123,94369,119166
2025-04-16 17:01:50.036,109028,15672,21128,94377,119158
2025-04-16 17:01:50.055,109034,15677,21132,94377,119157
2025-04-16 17:01:50.057,109042,15680,21137,94384,119167
2025-04-16 17:01:50.069,109039,15685,21136,94394,119186
2025-04-16 17:01:50.070,109039,15685,21136,94394,119186
2025-04-16 17:01:50.076,109053,15689,21146,94395,119184
2025-04-16 17:01:50.084,109057,15696,21147,94398,119187
2025-04-16 17:01:50.097,109069,15693,21144,94400,119185
2025-04-16 17:01:50.104,109054,15695,21152,94389,119195
2025-04-16 17:01:50.119,109065,15697,21156,94396,119187
2025-04-16 17:01:50.125,109075,15701,21159,94407,119186
2025-04-16 17:01:50.136,109093,15699,21168,94393,119169
2025-04-16 17:01:50.145,109106,15708,21171,94411,119192
2025-04-16 17:01:50.157,109116,15714,21175,94398,119190
2025-04-16 17:01:50.164,109128,15720,21184,94388,119197
2025-04-16 17:01:50.184,109127,15722,21186,94395,119188
2025-04-16 17:01:50.185,109126,15730,21191,94415,119211
2025-04-16 17:01:50.197,109138,15731,21195,94411,119188
2025-04-16 17:01:50.209,109141,15735,21200,94415,119202
2025-04-16 17:01:50.217,109152,15742,21205,94423,119219
2025-04-16 17:01:50.228,109149,15741,21210,94420,119215
2025-04-16 17:01:50.246,109145,15745,21216,94427,119231
2025-04-16 17:01:50.249,109150,15749,21215,94430,119229
2025-04-16 17:01:50.256,109148,15751,21220,94435,119237
2025-04-16 17:01:50.269,109152,15756,21226,94431,119231
2025-04-16 17:01:50.276,109158,15754,21230,94416,119242
2025-04-16 17:01:50.289,109158,15757,21234,94417,119242
2025-04-16 17:01:50.309,109157,15762,21238,94425,119230
2025-04-16 17:01:50.310,109166,15773,21242,94423,119245
2025-04-16 17:01:50.316,109167,15769,21250,94421,119252
2025-04-16 17:01:50.328,109168,15772,21250,94423,119245
2025-04-16 17:01:50.337,109159,15777,21257,94431,119246
2025-04-16 17:01:50.348,109166,15775,21252,94420,119238
2025-04-16 17:01:50.356,109153,15776,21256,94416,119235
2025-04-16 17:01:50.372,109139,15775,21252,94418,119214
2025-04-16 17:01:50.377,109112,15765,21240,94383,119204
2025-04-16 17:01:50.392,109102,15759,21231,94361,119184
2025-04-16 17:01:50.396,109062,15748,21216,94353,119155
2025-04-16 17:01:50.408,109051,15738,21201,94348,119136
2025-04-16 17:01:50.417,109036,15725,21186,94318,119108
2025-04-16 17:01:50.437,108992,15716,21166,94299,119091
2025-04-16 17:01:50.441,108971,15706,21150,94288,119071
2025-04-16 17:01:50.448,108965,15695,21136,94292,119057
2025-04-16 17:01:50.460,108947,15689,21120,94284,119070
2025-04-16 17:01:50.468,108935,15678,21109,94285,119058
2025-04-16 17:01:50.481,108943,15675,21103,94292,119081
2025-04-16 17:01:50.499,108937,15673,21095,94284,119076
2025-04-16 17:01:50.500,108953,15670,21087,94301,119092
2025-04-16 17:01:50.509,108948,15665,21092,94309,119114
2025-04-16 17:01:50.520,108956,15659,21085,94327,119100
2025-04-16 17:01:50.529,108984,15664,21084,94335,119106
2025-04-16 17:01:50.541,109014,15665,21087,94342,119118
2025-04-16 17:01:50.561,109038,15667,21094,94353,119132
2025-04-16 17:01:50.562,109050,15674,21099,94380,119142
2025-04-16 17:01:50.569,109071,15677,21107,94374,119152
2025-04-16 17:01:50.581,109096,15683,21110,94380,119141
2025-04-16 17:01:50.588,109111,15692,21115,94393,119162
2025-04-16 17:01:50.601,109113,15692,21120,94415,119191
2025-04-16 17:01:50.608,109132,15699,21127,94418,119178
2025-04-16 17:01:50.624,109130,15703,21126,94428,119199
2025-04-16 17:01:50.629,109131,15707,21126,94448,119220
2025-04-16 17:01:50.640,109135,15703,21130,94451,119223
2025-04-16 17:01:50.648,109151,15707,21132,94479,119238
2025-04-16 17:01:50.661,109166,15714,21130,94485,119256
2025-04-16 17:01:50.672,109173,15715,21132,94492,119254
2025-04-16 17:01:50.687,109181,15715,21140,94504,119256
2025-04-16 17:01:50.692,109190,15718,21139,94513,119248
2025-04-16 17:01:50.701,109188,15720,21142,94507,119272
2025-04-16 17:01:50.713,109192,15722,21145,94513,119251
2025-04-16 17:01:50.720,109186,15727,21149,94504,119246
2025-04-16 17:01:50.732,109191,15727,21150,94513,119258
2025-04-16 17:01:50.749,109194,15727,21153,94510,119270
2025-04-16 17:01:50.753,109190,15731,21159,94517,119264
2025-04-16 17:01:50.761,109197,15734,21156,94500,119258
2025-04-16 17:01:50.772,109209,15742,21165,94516,119265
2025-04-16 17:01:50.780,109210,15742,21173,94519,119267
2025-04-16 17:01:50.792,109212,15747,21175,94524,119265
2025-04-16 17:01:50.813,109222,15747,21177,94537,119251
2025-04-16 17:01:50.814,109223,15754,21184,94527,119269
2025-04-16 17:01:50.821,109224,15761,21189,94523,119270
2025-04-16 17:01:50.833,109236,15759,21193,94526,119267
2025-04-16 17:01:50.840,109233,15764,21194,94521,119268
2025-04-16 17:01:50.853,109216,15769,21203,94517,119259
2025-04-16 17:01:50.861,109218,15769,21205,94516,119267
2025-04-16 17:01:50.876,109203,15775,21208,94507,119257
2025-04-16 17:01:50.877,109203,15775,21208,94507,119257
2025-04-16 17:01:50.880,109175,15775,21211,94504,119256
2025-04-16 17:01:50.892,109183,15775,21216,94499,119243
2025-04-16 17:01:50.905,109157,15776,21206,94483,119234
2025-04-16 17:01:50.912,109155,15774,21210,94467,119210
2025-04-16 17:01:50.938,109135,15775,21212,94462,119205
2025-04-16 17:01:50.939,109132,15776,21215,94469,119192
2025-04-16 17:01:50.945,109114,15780,21218,94443,119188
2025-04-16 17:01:50.953,109090,15779,21219,94442,119180
2025-04-16 17:01:50.964,109088,15778,21220,94421,119167
2025-04-16 17:01:50.971,109070,15777,21217,94401,119157
2025-04-16 17:01:50.984,109056,15777,21214,94385,119133
2025-04-16 17:01:51.001,109024,15771,21206,94377,119105
2025-04-16 17:01:51.004,108989,15764,21190,94349,119085
2025-04-16 17:01:51.013,108958,15751,21177,94327,119064
2025-04-16 17:01:51.024,108921,15737,21159,94311,119027
2025-04-16 17:01:51.032,108908,15731,21146,94286,119004
2025-04-16 17:01:51.043,108872,15719,21123,94262,118985
2025-04-16 17:01:51.064,108862,15707,21113,94235,118963
2025-04-16 17:01:51.066,108852,15698,21097,94231,118948
2025-04-16 17:01:51.076,108845,15689,21086,94218,118938
2025-04-16 17:01:51.084,108828,15683,21073,94212,118931
2025-04-16 17:01:51.092,108824,15678,21068,94201,118919
2025-04-16 17:01:51.104,108840,15675,21060,94205,118938
2025-04-16 17:01:51.126,108849,15667,21051,94221,118935
2025-04-16 17:01:51.128,108852,15662,21045,94226,118937
2025-04-16 17:01:51.136,108875,15664,21047,94222,118938
2025-04-16 17:01:51.144,108881,15660,21047,94220,118934
2025-04-16 17:01:51.157,108888,15660,21038,94241,118948
2025-04-16 17:01:51.164,108914,15660,21041,94244,118959
2025-04-16 17:01:51.189,108921,15660,21037,94265,118989
2025-04-16 17:01:51.190,108944,15662,21043,94297,119018
2025-04-16 17:01:51.197,108960,15664,21043,94297,119031
2025-04-16 17:01:51.204,108968,15661,21043,94311,119041
2025-04-16 17:01:51.217,108975,15660,21040,94301,119028
2025-04-16 17:01:51.224,108982,15659,21043,94304,119022
2025-04-16 17:01:51.235,108987,15660,21041,94297,119027
2025-04-16 17:01:51.251,108985,15661,21042,94304,119028
2025-04-16 17:01:51.257,108982,15665,21040,94308,119032
2025-04-16 17:01:51.264,108989,15662,21038,94292,119022
2025-04-16 17:01:51.277,108981,15664,21038,94292,119035
2025-04-16 17:01:51.284,108984,15659,21037,94289,119020
2025-04-16 17:01:51.296,108980,15662,21037,94271,119011
2025-04-16 17:01:51.315,108980,15659,21039,94266,118995
2025-04-16 17:01:51.316,108983,15661,21037,94253,119005
2025-04-16 17:01:51.324,108967,15658,21035,94244,119000
2025-04-16 17:01:51.335,108949,15661,21035,94223,118985
2025-04-16 17:01:51.348,108932,15663,21037,94213,118961
2025-04-16 17:01:51.356,108917,15663,21040,94211,118981
2025-04-16 17:01:51.378,108912,15670,21037,94209,119004
2025-04-16 17:01:51.379,108895,15667,21039,94228,119025
2025-04-16 17:01:51.388,108902,15663,21028,94239,119040
2025-04-16 17:01:51.395,108898,15665,21032,94221,119044
2025-04-16 17:01:51.408,108887,15657,21025,94238,119040
2025-04-16 17:01:51.416,108880,15650,21019,94214,119026
2025-04-16 17:01:51.439,108874,15651,21020,94184,119011
2025-04-16 17:01:51.440,108870,15645,21013,94179,119026
2025-04-16 17:01:51.448,108861,15639,21013,94166,118993
2025-04-16 17:01:51.456,108873,15637,21003,94156,119004
2025-04-16 17:01:51.468,108870,15631,21001,94136,119008
2025-04-16 17:01:51.476,108869,15624,20995,94127,118994
2025-04-16 17:01:51.488,108866,15618,20992,94099,118992
2025-04-16 17:01:51.502,108876,15610,20987,94100,118977
2025-04-16 17:01:51.508,108875,15607,20984,94070,118955
2025-04-16 17:01:51.516,108874,15601,20986,94046,118936
2025-04-16 17:01:51.527,108863,15595,20983,94025,118920
2025-04-16 17:01:51.536,108863,15600,20979,94013,118890
2025-04-16 17:01:51.548,108864,15598,20981,94002,118891
2025-04-16 17:01:51.566,108864,15595,20982,93979,118881
2025-04-16 17:01:51.568,108861,15597,20975,93980,118877
2025-04-16 17:01:51.580,108856,15589,20975,93968,118876
2025-04-16 17:01:51.588,108858,15589,20972,93957,118863
2025-04-16 17:01:51.600,108851,15579,20966,93957,118855
2025-04-16 17:01:51.608,108852,15576,20962,93930,118833
2025-04-16 17:01:51.627,108824,15569,20952,93913,118825
2025-04-16 17:01:51.628,108800,15559,20941,93902,118813
2025-04-16 17:01:51.640,108805,15553,20921,93879,118795
2025-04-16 17:01:51.647,108776,15540,20909,93861,118777
2025-04-16 17:01:51.659,108758,15523,20888,93839,118743
2025-04-16 17:01:51.668,108748,15513,20872,93815,118734
2025-04-16 17:01:51.691,108723,15501,20858,93784,118678
2025-04-16 17:01:51.692,108723,15501,20858,93784,118678
2025-04-16 17:01:51.693,108704,15483,20830,93733,118636
2025-04-16 17:01:51.700,108680,15485,20821,93730,118634
2025-04-16 17:01:51.708,108682,15479,20812,93739,118639
2025-04-16 17:01:51.720,108676,15470,20804,93737,118645
2025-04-16 17:01:51.727,108700,15464,20797,93735,118652
2025-04-16 17:01:51.740,108703,15458,20792,93737,118646
2025-04-16 17:01:51.755,108694,15451,20784,93734,118644
2025-04-16 17:01:51.760,108706,15448,20780,93710,118610
2025-04-16 17:01:51.767,108690,15445,20775,93716,118625
2025-04-16 17:01:51.780,108705,15442,20778,93708,118615
2025-04-16 17:01:51.792,108701,15442,20773,93702,118619
2025-04-16 17:01:51.799,108703,15444,20770,93714,118638
2025-04-16 17:01:51.817,108717,15446,20776,93719,118646
2025-04-16 17:01:51.820,108716,15444,20777,93715,118634
2025-04-16 17:01:51.832,108717,15445,20776,93704,118624
2025-04-16 17:01:51.839,108707,15446,20778,93702,118622
2025-04-16 17:01:51.852,108722,15447,20777,93687,118622
2025-04-16 17:01:51.860,108721,15448,20781,93685,118623
2025-04-16 17:01:51.879,108707,15449,20780,93678,118607
2025-04-16 17:01:51.880,108715,15443,20776,93686,118619
2025-04-16 17:01:51.892,108722,15450,20781,93660,118587
2025-04-16 17:01:51.899,108710,15448,20780,93643,118592
2025-04-16 17:01:51.912,108716,15445,20781,93637,118579
2025-04-16 17:01:51.919,108726,15446,20786,93635,118584
2025-04-16 17:01:51.943,108743,15451,20788,93622,118581
2025-04-16 17:01:51.944,108751,15453,20784,93636,118577
2025-04-16 17:01:51.952,108755,15451,20794,93623,118573
2025-04-16 17:01:51.959,108771,15455,20793,93622,118574
2025-04-16 17:01:51.971,108781,15459,20795,93626,118581
2025-04-16 17:01:51.980,108789,15462,20802,93627,118578
2025-04-16 17:01:51.991,108806,15462,20803,93625,118595
2025-04-16 17:01:52.005,108830,15470,20813,93640,118616
2025-04-16 17:01:52.012,108836,15472,20812,93645,118621
2025-04-16 17:01:52.019,108857,15478,20815,93665,118643
2025-04-16 17:01:52.032,108886,15483,20824,93672,118661
2025-04-16 17:01:52.043,108896,15488,20828,93684,118667
2025-04-16 17:01:52.052,108910,15491,20839,93675,118686
2025-04-16 17:01:52.068,108926,15500,20847,93684,118686
2025-04-16 17:01:52.071,108924,15502,20844,93687,118695
2025-04-16 17:01:52.083,108937,15509,20854,93693,118690
2025-04-16 17:01:52.092,108945,15512,20860,93698,118702
2025-04-16 17:01:52.103,108958,15520,20864,93700,118726
2025-04-16 17:01:52.111,108979,15530,20876,93699,118714
2025-04-16 17:01:52.131,108966,15531,20888,93698,118709
2025-04-16 17:01:52.132,108984,15540,20889,93707,118716
2025-04-16 17:01:52.143,109003,15548,20899,93706,118718
2025-04-16 17:01:52.151,109011,15552,20909,93710,118741
2025-04-16 17:01:52.164,109021,15556,20922,93723,118751
2025-04-16 17:01:52.171,109044,15567,20924,93721,118743
2025-04-16 17:01:52.193,109053,15574,20937,93705,118775
2025-04-16 17:01:52.194,109058,15576,20946,93695,118761
2025-04-16 17:01:52.204,109051,15588,20952,93712,118776
2025-04-16 17:01:52.212,109037,15590,20961,93701,118749
2025-04-16 17:01:52.223,109029,15592,20961,93683,118751
2025-04-16 17:01:52.232,109026,15594,20964,93665,118747
2025-04-16 17:01:52.257,108987,15585,20953,93659,118726
2025-04-16 17:01:52.258,108977,15580,20940,93634,118705
2025-04-16 17:01:52.263,108962,15576,20935,93615,118671
2025-04-16 17:01:52.275,108931,15567,20921,93590,118649
2025-04-16 17:01:52.284,108907,15558,20909,93574,118610
2025-04-16 17:01:52.295,108895,15552,20901,93560,118610
2025-04-16 17:01:52.303,108890,15551,20887,93550,118596
2025-04-16 17:01:52.319,108872,15544,20884,93545,118583
2025-04-16 17:01:52.323,108868,15543,20874,93542,118571
2025-04-16 17:01:52.335,108869,15536,20872,93541,118573
2025-04-16 17:01:52.344,108880,15541,20867,93539,118593
2025-04-16 17:01:52.355,108882,15543,20874,93536,118580
2025-04-16 17:01:52.364,108882,15545,20871,93551,118589
2025-04-16 17:01:52.380,108894,15541,20873,93553,118611
2025-04-16 17:01:52.384,108882,15551,20868,93552,118605
2025-04-16 17:01:52.395,108902,15548,20876,93567,118610
2025-04-16 17:01:52.403,108923,15549,20876,93572,118607
2025-04-16 17:01:52.416,108931,15557,20884,93587,118635
2025-04-16 17:01:52.423,108925,15558,20885,93594,118634
2025-04-16 17:01:52.443,108939,15563,20896,93602,118654
2025-04-16 17:01:52.444,108936,15569,20895,93603,118654
2025-04-16 17:01:52.455,108948,15573,20904,93617,118651
2025-04-16 17:01:52.463,108937,15580,20909,93646,118677
2025-04-16 17:01:52.476,108947,15584,20912,93664,118683
2025-04-16 17:01:52.487,108941,15587,20918,93673,118707
2025-04-16 17:01:52.491,108941,15587,20918,93673,118707
2025-04-16 17:01:52.504,108917,15596,20929,93694,118687
2025-04-16 17:01:52.508,108893,15595,20937,93689,118681
2025-04-16 17:01:52.515,108909,15607,20947,93697,118711
2025-04-16 17:01:52.528,108891,15614,20956,93723,118688
2025-04-16 17:01:52.536,108875,15625,20966,93717,118708
2025-04-16 17:01:52.547,108876,15629,20975,93733,118712
2025-04-16 17:01:52.567,108859,15626,20977,93718,118698
2025-04-16 17:01:52.568,108823,15619,20974,93673,118661
2025-04-16 17:01:52.576,108752,15608,20968,93649,118604
2025-04-16 17:01:52.586,108667,15593,20946,93548,118518
2025-04-16 17:01:52.596,108551,15567,20924,93475,118402
2025-04-16 17:01:52.607,108471,15548,20906,93353,118263
2025-04-16 17:01:52.616,108367,15523,20885,93230,118162
2025-04-16 17:01:52.630,108284,15508,20864,93121,118045
2025-04-16 17:01:52.635,108209,15482,20841,93045,117954
2025-04-16 17:01:52.647,108195,15461,20823,92991,117894
2025-04-16 17:01:52.656,108186,15432,20789,92956,117863
2025-04-16 17:01:52.667,108184,15406,20764,92926,117825
2025-04-16 17:01:52.675,108205,15398,20738,92929,117825
2025-04-16 17:01:52.693,108248,15379,20723,92969,117849
2025-04-16 17:01:52.695,108301,15367,20707,93027,117890
2025-04-16 17:01:52.707,108373,15362,20698,93085,117976
2025-04-16 17:01:52.715,108397,15359,20698,93167,118022
2025-04-16 17:01:52.727,108441,15361,20707,93227,118078
2025-04-16 17:01:52.736,108450,15367,20709,93305,118130
2025-04-16 17:01:52.756,108494,15379,20726,93364,118186
2025-04-16 17:01:52.759,108533,15398,20745,93439,118241
2025-04-16 17:01:52.767,108563,15419,20766,93490,118277
2025-04-16 17:01:52.779,108608,15446,20798,93543,118335
2025-04-16 17:01:52.786,108663,15478,20836,93586,118386
2025-04-16 17:01:52.799,108709,15512,20871,93639,118432
2025-04-16 17:01:52.819,108765,15546,20915,93702,118465
2025-04-16 17:01:52.820,108824,15578,20958,93740,118524
2025-04-16 17:01:52.827,108884,15614,21005,93794,118577
2025-04-16 17:01:52.839,108907,15648,21043,93828,118610
2025-04-16 17:01:52.847,108936,15677,21078,93877,118647
2025-04-16 17:01:52.859,108954,15703,21106,93881,118695
2025-04-16 17:01:52.867,108957,15727,21125,93899,118683
2025-04-16 17:01:52.881,108969,15741,21150,93917,118702
2025-04-16 17:01:52.887,108956,15757,21158,93913,118714
2025-04-16 17:01:52.899,108941,15769,21163,93925,118716
2025-04-16 17:01:52.907,108942,15777,21176,93932,118722
2025-04-16 17:01:52.919,108939,15787,21179,93943,118724
2025-04-16 17:01:52.927,108933,15792,21193,93935,118725
2025-04-16 17:01:52.945,108949,15801,21205,93943,118740
2025-04-16 17:01:52.947,108964,15811,21211,93962,118766
2025-04-16 17:01:52.959,108977,15824,21227,93970,118790
2025-04-16 17:01:52.971,108986,15830,21236,93978,118811
2025-04-16 17:01:52.979,108990,15839,21240,94005,118813
2025-04-16 17:01:52.991,109003,15851,21252,93990,118811
2025-04-16 17:01:53.008,108994,15855,21257,94007,118846
2025-04-16 17:01:53.011,109005,15863,21267,94015,118850
2025-04-16 17:01:53.018,109006,15865,21269,94029,118868
2025-04-16 17:01:53.031,109010,15871,21276,94022,118886
2025-04-16 17:01:53.039,109004,15878,21284,94045,118893
2025-04-16 17:01:53.051,109020,15882,21288,94033,118898
2025-04-16 17:01:53.070,109020,15882,21302,94038,118889
2025-04-16 17:01:53.072,109028,15893,21305,94036,118894
2025-04-16 17:01:53.079,109022,15902,21310,94050,118914
2025-04-16 17:01:53.091,109018,15902,21317,94046,118932
2025-04-16 17:01:53.098,109019,15911,21321,94044,118930
2025-04-16 17:01:53.111,109014,15907,21320,94032,118924
2025-04-16 17:01:53.119,108997,15902,21323,94032,118902
2025-04-16 17:01:53.133,108978,15907,21323,94014,118897
2025-04-16 17:01:53.139,108970,15909,21326,93998,118890
2025-04-16 17:01:53.150,108968,15907,21323,93984,118872
2025-04-16 17:01:53.159,108966,15911,21326,93966,118847
2025-04-16 17:01:53.171,108944,15911,21335,93957,118845
2025-04-16 17:01:53.179,108957,15913,21332,93940,118841
2025-04-16 17:01:53.195,108939,15911,21330,93930,118833
2025-04-16 17:01:53.204,108931,15917,21336,93919,118813
2025-04-16 17:01:53.211,108950,15922,21339,93914,118827
2025-04-16 17:01:53.223,108942,15930,21342,93931,118832
2025-04-16 17:01:53.231,108948,15932,21344,93938,118842
2025-04-16 17:01:53.243,108961,15936,21355,93948,118879
2025-04-16 17:01:53.258,108982,15945,21357,93964,118885
2025-04-16 17:01:53.263,108972,15947,21361,93968,118900
2025-04-16 17:01:53.271,108976,15945,21360,93978,118903
2025-04-16 17:01:53.284,108993,15949,21365,93973,118903
2025-04-16 17:01:53.294,108992,15943,21360,93974,118892
2025-04-16 17:01:53.295,108992,15943,21360,93974,118892
2025-04-16 17:01:53.303,108975,15936,21355,93928,118851
2025-04-16 17:01:53.321,108960,15942,21358,93925,118828
2025-04-16 17:01:53.323,108967,15946,21362,93934,118825
2025-04-16 17:01:53.331,108984,15955,21370,93944,118833
2025-04-16 17:01:53.342,109006,15962,21378,93950,118869
2025-04-16 17:01:53.351,108987,15962,21380,93973,118871
2025-04-16 17:01:53.362,108962,15959,21378,93971,118853
2025-04-16 17:01:53.385,108938,15959,21375,93951,118810
2025-04-16 17:01:53.386,108887,15964,21377,93943,118807
2025-04-16 17:01:53.390,108839,15963,21374,93950,118809
2025-04-16 17:01:53.403,108793,15953,21354,93946,118782
2025-04-16 17:01:53.411,108777,15947,21342,93986,118779
2025-04-16 17:01:53.423,108778,15941,21322,94066,118853
2025-04-16 17:01:53.447,108802,15934,21303,94208,118924
2025-04-16 17:01:53.449,108843,15929,21279,94447,119087
2025-04-16 17:01:53.455,108942,15921,21257,94703,119243
2025-04-16 17:01:53.462,109094,15924,21254,95039,119431
2025-04-16 17:01:53.474,109313,15926,21239,95416,119711
2025-04-16 17:01:53.483,109529,15927,21242,95877,120015
2025-04-16 17:01:53.495,109789,15952,21258,96356,120352
2025-04-16 17:01:53.510,110064,15954,21263,96842,120749
2025-04-16 17:01:53.514,110359,15939,21257,97323,121106
2025-04-16 17:01:53.523,110692,15924,21244,97813,121472
2025-04-16 17:01:53.536,111097,15894,21227,98316,121800
2025-04-16 17:01:53.542,111650,15842,21197,98855,122165
2025-04-16 17:01:53.554,112344,15828,21231,99306,122486
2025-04-16 17:01:53.573,113024,15857,21281,99855,122906
2025-04-16 17:01:53.574,113596,15884,21326,100321,123217
2025-04-16 17:01:53.582,113986,15856,21336,100658,123370
2025-04-16 17:01:53.595,114277,15894,21389,100805,123265
2025-04-16 17:01:53.603,114078,15927,21397,100975,123283
2025-04-16 17:01:53.614,113740,15928,21386,100937,123117
2025-04-16 17:01:53.635,113295,15902,21362,100820,122855
2025-04-16 17:01:53.636,111845,15923,21281,100720,122600
2025-04-16 17:01:53.642,110029,15932,21190,100082,121768
2025-04-16 17:01:53.654,109459,15933,21178,99641,121214
2025-04-16 17:01:53.662,108864,15933,21176,99533,120996
2025-04-16 17:01:53.675,108559,15898,21161,99356,120726
2025-04-16 17:01:53.683,107886,15902,21132,99200,120466
2025-04-16 17:01:53.698,107606,15926,21151,98928,120063
2025-04-16 17:01:53.706,107697,15979,21203,98908,119998
2025-04-16 17:01:53.714,107937,16060,21272,99023,120066
2025-04-16 17:01:53.727,108303,16141,21360,99220,120233
2025-04-16 17:01:53.734,108649,16219,21455,99414,120457
2025-04-16 17:01:53.746,108985,16296,21543,99634,120709
2025-04-16 17:01:53.761,109530,16350,21652,99851,120970
2025-04-16 17:01:53.766,111260,16396,21838,100249,121423
2025-04-16 17:01:53.775,112832,16454,22018,100956,122215
2025-04-16 17:01:53.787,114185,16502,22174,101676,123025
2025-04-16 17:01:53.794,114405,16552,22262,102209,123580
2025-04-16 17:01:53.806,114602,16584,22344,102431,123811
2025-04-16 17:01:53.824,114832,16612,22418,102675,124019
2025-04-16 17:01:53.826,115150,16619,22483,102947,124203
2025-04-16 17:01:53.835,115604,16639,22547,103354,124457
2025-04-16 17:01:53.846,116083,16654,22607,103875,124770
2025-04-16 17:01:53.854,116510,16682,22669,104406,125124
2025-04-16 17:01:53.867,116830,16699,22726,104899,125423
2025-04-16 17:01:53.887,117035,16722,22783,105320,125674
2025-04-16 17:01:53.888,117112,16748,22829,105650,125908
2025-04-16 17:01:53.895,117047,16769,22866,105898,126075
2025-04-16 17:01:53.907,116930,16778,22867,106078,126245
2025-04-16 17:01:53.915,116975,16801,22891,106178,126329
2025-04-16 17:01:53.926,117138,16774,22877,106423,126557
2025-04-16 17:01:53.935,117345,16712,22846,106631,126701
2025-04-16 17:01:53.950,117175,16687,22808,106828,126833
2025-04-16 17:01:53.955,116936,16666,22767,106833,126821
2025-04-16 17:01:53.966,116929,16614,22760,106619,126654
2025-04-16 17:01:53.979,117139,16590,22803,106648,126709
2025-04-16 17:01:53.986,117364,16591,22866,106956,126990
2025-04-16 17:01:53.998,117477,16614,22946,107376,127353
2025-04-16 17:01:54.012,117433,16640,23015,107656,127601
2025-04-16 17:01:54.019,117379,16649,23057,107685,127655
2025-04-16 17:01:54.027,117394,16611,23067,107692,127692
2025-04-16 17:01:54.038,117624,16551,23082,107729,127708
2025-04-16 17:01:54.045,117882,16494,23086,107839,127762
2025-04-16 17:01:54.058,118041,16455,23084,107993,127826
2025-04-16 17:01:54.075,118078,16422,23085,108087,127859
2025-04-16 17:01:54.079,118065,16388,23080,108122,127858
2025-04-16 17:01:54.086,118123,16360,23082,108150,127823
2025-04-16 17:01:54.099,118199,16331,23094,108226,127860
2025-04-16 17:01:54.107,118266,16314,23102,108312,127890
2025-04-16 17:01:54.118,118326,16299,23112,108412,127957
2025-04-16 17:01:54.137,118314,16301,23133,108487,127977
2025-04-16 17:01:54.139,118246,16316,23147,108549,128036
2025-04-16 17:01:54.146,118149,16327,23165,108521,128026
2025-04-16 17:01:54.158,117973,16333,23161,108463,127959
2025-04-16 17:01:54.166,117777,16340,23154,108327,127843
2025-04-16 17:01:54.178,117594,16308,23132,108142,127689
2025-04-16 17:01:54.185,117507,16283,23110,107976,127521
2025-04-16 17:01:54.200,117396,16267,23095,107900,127406
2025-04-16 17:01:54.207,117289,16251,23077,107862,127344
2025-04-16 17:01:54.218,117209,16251,23063,107821,127273
2025-04-16 17:01:54.226,117107,16238,23040,107772,127186
2025-04-16 17:01:54.238,117036,16230,23026,107703,127132
2025-04-16 17:01:54.246,117036,16230,23026,107703,127132
2025-04-16 17:01:54.262,116944,16230,23009,107661,127081
2025-04-16 17:01:54.270,116866,16227,22997,107609,127020
2025-04-16 17:01:54.278,116798,16219,22988,107561,126962
2025-04-16 17:01:54.291,116799,16206,22981,107516,126937
2025-04-16 17:01:54.303,116862,16193,22974,107534,126923
2025-04-16 17:01:54.304,116862,16193,22974,107534,126923
2025-04-16 17:01:54.306,116862,16193,22974,107534,126923
2025-04-16 17:01:54.310,116785,16189,22985,107648,127056
2025-04-16 17:01:54.324,116757,16175,22974,107658,127070
2025-04-16 17:01:54.330,116810,16153,22965,107649,127086
2025-04-16 17:01:54.338,116928,16142,22965,107729,127164
2025-04-16 17:01:54.349,117026,16129,22964,107857,127289
2025-04-16 17:01:54.358,117074,16115,22959,108008,127445
2025-04-16 17:01:54.371,117070,16109,22962,108101,127557
2025-04-16 17:01:54.386,117054,16089,22958,108177,127655
2025-04-16 17:01:54.390,117008,16077,22959,108224,127706
2025-04-16 17:01:54.398,116965,16070,22959,108255,127737
2025-04-16 17:01:54.409,116912,16065,22959,108279,127771
2025-04-16 17:01:54.418,116820,16071,22965,108301,127831
2025-04-16 17:01:54.430,116720,16075,22967,108296,127824
2025-04-16 17:01:54.449,116652,16089,22987,108298,127869
2025-04-16 17:01:54.451,116555,16104,23008,108311,127909
2025-04-16 17:01:54.459,116403,16121,23027,108290,127959
2025-04-16 17:01:54.471,116247,16136,23051,108267,127999
2025-04-16 17:01:54.482,116108,16144,23077,108210,127985
2025-04-16 17:01:54.491,116043,16164,23103,108171,127978
2025-04-16 17:01:54.511,116007,16180,23132,108160,128004
2025-04-16 17:01:54.512,115958,16203,23168,108148,128029
2025-04-16 17:01:54.522,115909,16224,23206,108138,128048
2025-04-16 17:01:54.530,115854,16258,23246,108117,128053
2025-04-16 17:01:54.542,115812,16283,23285,108115,128079
2025-04-16 17:01:54.551,115771,16312,23323,108086,128089
2025-04-16 17:01:54.574,115765,16325,23354,108066,128104
2025-04-16 17:01:54.575,115814,16344,23386,108037,128067
2025-04-16 17:01:54.583,115829,16355,23416,108062,128102
2025-04-16 17:01:54.591,115849,16371,23448,108050,128109
2025-04-16 17:01:54.602,115900,16391,23478,108044,128119
2025-04-16 17:01:54.610,115979,16410,23509,108040,128121
2025-04-16 17:01:54.622,116085,16437,23557,108047,128132
2025-04-16 17:01:54.636,116234,16463,23604,108072,128133
2025-04-16 17:01:54.642,116362,16487,23649,108085,128127
2025-04-16 17:01:54.650,116479,16532,23696,108087,128125
2025-04-16 17:01:54.662,116577,16580,23759,108086,128086
2025-04-16 17:01:54.669,116654,16627,23812,108041,128040
2025-04-16 17:01:54.682,116781,16685,23859,107969,127964
2025-04-16 17:01:54.698,116844,16732,23907,107871,127889
2025-04-16 17:01:54.703,116869,16772,23947,107787,127850
2025-04-16 17:01:54.710,116901,16812,23989,107717,127797
2025-04-16 17:01:54.722,116946,16849,24025,107646,127766
2025-04-16 17:01:54.730,116991,16879,24058,107587,127752
2025-04-16 17:01:54.743,117056,16913,24093,107540,127726
2025-04-16 17:01:54.761,117130,16952,24124,107541,127725
2025-04-16 17:01:54.762,117191,16986,24166,107559,127748
2025-04-16 17:01:54.770,117252,17023,24210,107600,127789
2025-04-16 17:01:54.782,117291,17054,24242,107633,127807
2025-04-16 17:01:54.794,117338,17087,24281,107623,127797
2025-04-16 17:01:54.802,117424,17126,24320,107665,127803
2025-04-16 17:01:54.824,117507,17163,24365,107718,127861
2025-04-16 17:01:54.825,117600,17188,24394,107848,127971
2025-04-16 17:01:54.834,117693,17194,24420,107941,128057
2025-04-16 17:01:54.842,117775,17204,24434,108077,128126
2025-04-16 17:01:54.854,117822,17207,24448,108173,128171
2025-04-16 17:01:54.862,117821,17215,24460,108246,128197
2025-04-16 17:01:54.891,117824,17233,24463,108305,128231
2025-04-16 17:01:54.892,117829,17238,24471,108349,128268
2025-04-16 17:01:54.894,117848,17236,24480,108429,128312
2025-04-16 17:01:54.902,117884,17231,24496,108509,128354
2025-04-16 17:01:54.914,117913,17228,24504,108584,128401
2025-04-16 17:01:54.922,117915,17219,24522,108649,128426
2025-04-16 17:01:54.934,117949,17204,24535,108669,128391
2025-04-16 17:01:54.953,117991,17168,24543,108627,128343
2025-04-16 17:01:54.955,118040,17118,24542,108554,128222
2025-04-16 17:01:54.962,118132,17059,24537,108490,128072
2025-04-16 17:01:54.974,118190,17014,24530,108449,127977
2025-04-16 17:01:54.982,118219,16979,24530,108430,127882
2025-04-16 17:01:54.994,118196,16954,24511,108412,127808
2025-04-16 17:01:55.001,118089,16952,24508,108331,127676
2025-04-16 17:01:55.015,116841,16952,24409,108207,127541
2025-04-16 17:01:55.022,116229,16975,24399,107644,126973
2025-04-16 17:01:55.033,116054,17019,24432,107477,126893
2025-04-16 17:01:55.043,115830,17075,24466,107290,126871
2025-04-16 17:01:55.053,115263,17150,24486,107017,126781
2025-04-16 17:01:55.063,114632,17231,24518,106569,126571
2025-04-16 17:01:55.078,113843,17306,24543,105972,126277
2025-04-16 17:01:55.082,112711,17360,24538,105119,125778
2025-04-16 17:01:55.094,112009,17388,24566,104083,125095
2025-04-16 17:01:55.106,111447,17418,24587,103218,124562
2025-04-16 17:01:55.109,111447,17418,24587,103218,124562
2025-04-16 17:01:55.114,109599,17451,24316,101883,123618
2025-04-16 17:01:55.125,105071,17446,22875,100383,121832
2025-04-16 17:01:55.140,103890,17360,22696,97160,118114
2025-04-16 17:01:55.146,103386,17283,22633,96412,117464
2025-04-16 17:01:55.154,103041,17232,22587,95887,116985
2025-04-16 17:01:55.166,102771,17192,22544,95517,116679
2025-04-16 17:01:55.173,102545,17183,22505,95222,116379
2025-04-16 17:01:55.186,102353,17169,22458,95043,116233
2025-04-16 17:01:55.203,102144,17152,22407,94987,116185
2025-04-16 17:01:55.206,101902,17136,22339,94989,116153
2025-04-16 17:01:55.214,101649,17132,22276,95018,116126
2025-04-16 17:01:55.226,101401,17126,22214,95018,116116
2025-04-16 17:01:55.234,101157,17099,22148,94924,116024
2025-04-16 17:01:55.245,100882,17075,22067,94539,115759
2025-04-16 17:01:55.266,100526,17043,21987,93925,115362
2025-04-16 17:01:55.267,100219,17022,21934,93288,115009
2025-04-16 17:01:55.273,100023,17012,21911,92788,114709
2025-04-16 17:01:55.286,99906,17031,21903,92399,114413
2025-04-16 17:01:55.294,99876,17072,21928,92164,114261
2025-04-16 17:01:55.306,99902,17134,21980,92122,114280
2025-04-16 17:01:55.314,99958,17186,22024,92137,114355
2025-04-16 17:01:55.328,100004,17230,22055,92067,114338
2025-04-16 17:01:55.334,100037,17280,22082,91985,114290
2025-04-16 17:01:55.345,100085,17327,22103,91968,114339
2025-04-16 17:01:55.354,100143,17365,22127,91972,114361
2025-04-16 17:01:55.365,100171,17393,22129,91922,114357
2025-04-16 17:01:55.374,100166,17403,22127,91786,114235
2025-04-16 17:01:55.390,100112,17402,22109,91566,114056
2025-04-16 17:01:55.399,100031,17394,22081,91351,113835
2025-04-16 17:01:55.406,99932,17385,22061,91191,113689
2025-04-16 17:01:55.418,99844,17374,22036,91076,113597
2025-04-16 17:01:55.425,99726,17350,22010,90952,113471
2025-04-16 17:01:55.438,99626,17332,21976,90800,113307
2025-04-16 17:01:55.452,99532,17321,21954,90678,113174
2025-04-16 17:01:55.457,99465,17313,21928,90635,113137
2025-04-16 17:01:55.465,99413,17293,21894,90601,113070
2025-04-16 17:01:55.478,99346,17270,21854,90488,112966
2025-04-16 17:01:55.485,99260,17237,21810,90376,112847
2025-04-16 17:01:55.498,99180,17217,21770,90296,112763
2025-04-16 17:01:55.515,99091,17192,21721,90233,112658
2025-04-16 17:01:55.517,98981,17162,21681,90130,112565
2025-04-16 17:01:55.525,98897,17132,21637,90028,112450
2025-04-16 17:01:55.538,98822,17109,21595,89955,112372
2025-04-16 17:01:55.546,98764,17098,21565,89877,112292
2025-04-16 17:01:55.557,98724,17086,21532,89829,112232
2025-04-16 17:01:55.577,98693,17076,21505,89772,112184
2025-04-16 17:01:55.578,98666,17066,21483,89707,112117
2025-04-16 17:01:55.586,98652,17059,21463,89651,112054
2025-04-16 17:01:55.597,98651,17058,21448,89613,112031
2025-04-16 17:01:55.606,98654,17067,21436,89581,112000
2025-04-16 17:01:55.618,98664,17065,21423,89560,111985
2025-04-16 17:01:55.625,98677,17076,21420,89551,111982
2025-04-16 17:01:55.640,98700,17078,21410,89560,112002
2025-04-16 17:01:55.646,98685,17079,21405,89572,112021
2025-04-16 17:01:55.657,98663,17071,21387,89553,112007
2025-04-16 17:01:55.666,98636,17065,21375,89484,111950
2025-04-16 17:01:55.677,98637,17060,21364,89428,111893
2025-04-16 17:01:55.686,98651,17061,21363,89367,111857
2025-04-16 17:01:55.702,98679,17065,21351,89351,111846
2025-04-16 17:01:55.710,98690,17068,21351,89311,111805
2025-04-16 17:01:55.718,98737,17079,21354,89284,111787
2025-04-16 17:01:55.730,98775,17096,21364,89257,111794
2025-04-16 17:01:55.738,98841,17115,21379,89280,111832
2025-04-16 17:01:55.749,98895,17127,21387,89297,111860
2025-04-16 17:01:55.763,98938,17151,21402,89318,111907
2025-04-16 17:01:55.769,98991,17165,21413,89370,111970
2025-04-16 17:01:55.778,99044,17189,21434,89388,112018
2025-04-16 17:01:55.790,99104,17206,21449,89407,112054
2025-04-16 17:01:55.796,99162,17224,21464,89438,112097
2025-04-16 17:01:55.810,99189,17242,21480,89470,112133
2025-04-16 17:01:55.826,99226,17252,21487,89500,112182
2025-04-16 17:01:55.829,99255,17258,21486,89501,112205
2025-04-16 17:01:55.838,99275,17256,21491,89513,112236
2025-04-16 17:01:55.849,99292,17260,21486,89514,112239
2025-04-16 17:01:55.857,99308,17264,21487,89535,112258
2025-04-16 17:01:55.869,99334,17261,21490,89539,112289
2025-04-16 17:01:55.888,99368,17267,21490,89557,112298
2025-04-16 17:01:55.890,99388,17265,21483,89576,112331
2025-04-16 17:01:55.897,99404,17270,21479,89594,112357
2025-04-16 17:01:55.910,99407,17264,21477,89609,112370
2025-04-16 17:01:55.918,99428,17259,21463,89633,112401
2025-04-16 17:01:55.929,99431,17250,21456,89625,112404
2025-04-16 17:01:55.937,99420,17229,21434,89636,112393
2025-04-16 17:01:55.951,99395,17205,21412,89582,112354
2025-04-16 17:01:55.958,99374,17189,21388,89543,112297
2025-04-16 17:01:55.969,99404,17171,21367,89540,112305
2025-04-16 17:01:55.977,99730,17163,21315,89548,112307
2025-04-16 17:01:55.990,99787,17132,21281,89497,112227
2025-04-16 17:01:55.997,99771,17109,21253,89467,112162
2025-04-16 17:01:56.014,99771,17078,21226,89472,112169
2025-04-16 17:01:56.017,99812,17064,21210,89503,112173
2025-04-16 17:01:56.030,99834,17037,21186,89545,112217
2025-04-16 17:01:56.037,99868,17016,21176,89542,112198
2025-04-16 17:01:56.049,99919,17007,21171,89557,112199
2025-04-16 17:01:56.061,99987,17017,21181,89605,112229
2025-04-16 17:01:56.076,100056,17036,21203,89675,112305
2025-04-16 17:01:56.081,100149,17060,21235,89750,112351
2025-04-16 17:01:56.090,100225,17096,21263,89817,112429
2025-04-16 17:01:56.102,100299,17124,21289,89869,112463
2025-04-16 17:01:56.114,100385,17168,21320,89893,112471
2025-04-16 17:01:56.114,100385,17168,21320,89893,112471
2025-04-16 17:01:56.121,100595,17219,21356,89943,112495
2025-04-16 17:01:56.139,100621,17209,21319,89937,112482
2025-04-16 17:01:56.142,100536,17139,21205,90008,112493
2025-04-16 17:01:56.149,100545,17114,21131,90076,112505
2025-04-16 17:01:56.161,100551,17082,21071,90383,112734
2025-04-16 17:01:56.169,100549,17061,21022,90724,112988
2025-04-16 17:01:56.181,100553,17033,20978,91042,113236
2025-04-16 17:01:56.202,100530,17003,20928,91275,113402
2025-04-16 17:01:56.203,100507,16964,20893,91464,113516
2025-04-16 17:01:56.210,100494,16935,20860,91601,113589
2025-04-16 17:01:56.220,100483,16912,20824,91703,113661
2025-04-16 17:01:56.229,100439,16884,20791,91776,113698
2025-04-16 17:01:56.242,100413,16866,20777,91811,113696
2025-04-16 17:01:56.249,100385,16856,20761,91818,113687
2025-04-16 17:01:56.264,100355,16849,20752,91821,113694
2025-04-16 17:01:56.273,100336,16849,20749,91808,113678
2025-04-16 17:01:56.280,100329,16849,20748,91776,113646
2025-04-16 17:01:56.293,100314,16841,20753,91742,113634
2025-04-16 17:01:56.301,100332,16847,20760,91682,113622
2025-04-16 17:01:56.312,100351,16851,20776,91628,113589
2025-04-16 17:01:56.328,100373,16861,20786,91573,113596
2025-04-16 17:01:56.333,100363,16853,20789,91514,113565
2025-04-16 17:01:56.342,100378,16856,20793,91426,113501
2025-04-16 17:01:56.354,100418,16859,20798,91367,113464
2025-04-16 17:01:56.361,100476,16862,20809,91321,113460
2025-04-16 17:01:56.373,100530,16870,20812,91308,113467
2025-04-16 17:01:56.390,100570,16872,20808,91265,113454
2025-04-16 17:01:56.393,100893,16880,20769,91217,113416
2025-04-16 17:01:56.402,101165,16885,20740,91146,113333
2025-04-16 17:01:56.413,101270,16886,20732,91088,113297
2025-04-16 17:01:56.421,101346,16891,20733,91071,113306
2025-04-16 17:01:56.433,101422,16888,20729,91063,113307
2025-04-16 17:01:56.452,101505,16879,20717,91068,113311
2025-04-16 17:01:56.453,101558,16869,20703,91038,113304
2025-04-16 17:01:56.461,101652,16876,20711,91030,113308
2025-04-16 17:01:56.473,101751,16855,20704,91079,113361
2025-04-16 17:01:56.481,101768,16838,20683,91077,113319
2025-04-16 17:01:56.493,101755,16821,20658,91054,113315
2025-04-16 17:01:56.514,101766,16807,20647,91055,113288
2025-04-16 17:01:56.516,101770,16797,20637,91064,113268
2025-04-16 17:01:56.525,101768,16799,20631,91062,113248
2025-04-16 17:01:56.533,101784,16787,20619,91103,113262
2025-04-16 17:01:56.545,101803,16790,20618,91121,113263
2025-04-16 17:01:56.553,101812,16787,20613,91156,113277
2025-04-16 17:01:56.577,101834,16782,20607,91191,113270
2025-04-16 17:01:56.578,101850,16783,20604,91238,113297
2025-04-16 17:01:56.585,101858,16776,20602,91293,113302
2025-04-16 17:01:56.592,101856,16763,20594,91324,113307
2025-04-16 17:01:56.605,101857,16765,20589,91367,113305
2025-04-16 17:01:56.613,101862,16764,20578,91390,113297
2025-04-16 17:01:56.625,101876,16758,20575,91447,113303
2025-04-16 17:01:56.639,101876,16753,20574,91471,113302
2025-04-16 17:01:56.645,101876,16745,20565,91506,113297
2025-04-16 17:01:56.654,101868,16744,20559,91534,113285
2025-04-16 17:01:56.666,101861,16738,20558,91549,113285
2025-04-16 17:01:56.673,101851,16729,20555,91583,113263
2025-04-16 17:01:56.685,101831,16711,20534,91583,113233
2025-04-16 17:01:56.702,101802,16702,20519,91597,113209
2025-04-16 17:01:56.705,101784,16682,20505,91581,113159
2025-04-16 17:01:56.717,101762,16672,20493,91564,113140
2025-04-16 17:01:56.724,101726,16654,20475,91544,113081
2025-04-16 17:01:56.737,101680,16630,20446,91517,113038
2025-04-16 17:01:56.745,101653,16603,20413,91488,112987
2025-04-16 17:01:56.764,101615,16580,20380,91466,112909
2025-04-16 17:01:56.765,101573,16547,20337,91436,112858
2025-04-16 17:01:56.777,101532,16515,20293,91404,112811
2025-04-16 17:01:56.785,101494,16482,20247,91367,112760
2025-04-16 17:01:56.796,101447,16454,20206,91337,112688
2025-04-16 17:01:56.805,101425,16426,20162,91273,112639
2025-04-16 17:01:56.827,101390,16405,20133,91245,112585
2025-04-16 17:01:56.828,101375,16379,20103,91221,112544
2025-04-16 17:01:56.837,101340,16359,20066,91185,112528
2025-04-16 17:01:56.845,101315,16343,20037,91152,112479
2025-04-16 17:01:56.857,101287,16324,20014,91140,112455
2025-04-16 17:01:56.865,101265,16311,19989,91106,112418
2025-04-16 17:01:56.889,101242,16286,19961,91078,112384
2025-04-16 17:01:56.891,101213,16280,19944,91044,112377
2025-04-16 17:01:56.896,101204,16260,19929,91020,112332
2025-04-16 17:01:56.905,101170,16248,19907,90992,112315
2025-04-16 17:01:56.917,101137,16230,19879,90963,112277
2025-04-16 17:01:56.924,101108,16215,19857,90916,112235
2025-04-16 17:01:56.936,101086,16196,19825,90821,112143
2025-04-16 17:01:56.952,101050,16175,19796,90676,112021
2025-04-16 17:01:56.957,101010,16154,19765,90494,111876
2025-04-16 17:01:56.968,100967,16129,19734,90332,111722
2025-04-16 17:01:56.977,100910,16111,19710,90182,111595
2025-04-16 17:01:56.989,100856,16089,19685,90023,111453
2025-04-16 17:01:56.997,100804,16066,19650,89880,111321
2025-04-16 17:01:57.014,100739,16046,19633,89737,111179
2025-04-16 17:01:57.017,100682,16028,19604,89561,111027
2025-04-16 17:01:57.029,100607,16012,19583,89425,110908
2025-04-16 17:01:57.037,100391,15994,19544,89291,110784
2025-04-16 17:01:57.049,100270,15977,19521,89183,110649
2025-04-16 17:01:57.057,100218,15966,19502,89104,110595
2025-04-16 17:01:57.077,100183,15946,19487,89028,110529
2025-04-16 17:01:57.078,100151,15932,19472,88961,110463
2025-04-16 17:01:57.089,100119,15923,19462,88906,110416
2025-04-16 17:01:57.096,100088,15913,19449,88865,110362
2025-04-16 17:01:57.109,100073,15903,19442,88843,110343
2025-04-16 17:01:57.121,100043,15899,19427,88818,110323
2025-04-16 17:01:57.122,100043,15899,19427,88818,110323
2025-04-16 17:01:57.139,100002,15879,19415,88826,110317
2025-04-16 17:01:57.141,99983,15882,19412,88844,110329
2025-04-16 17:01:57.149,99957,15874,19407,88863,110343
2025-04-16 17:01:57.157,99954,15874,19410,88875,110360
2025-04-16 17:01:57.168,99944,15872,19409,88911,110371
2025-04-16 17:01:57.176,99948,15871,19414,88931,110406
2025-04-16 17:01:57.188,99934,15865,19402,88973,110426
2025-04-16 17:01:57.203,99919,15864,19404,89006,110454
2025-04-16 17:01:57.209,99907,15855,19394,89038,110470
2025-04-16 17:01:57.220,99893,15845,19394,89046,110500
2025-04-16 17:01:57.229,99873,15832,19384,89050,110488
2025-04-16 17:01:57.240,99863,15822,19377,89062,110482
2025-04-16 17:01:57.249,99839,15812,19371,89060,110476
2025-04-16 17:01:57.265,99847,15801,19367,89062,110472
2025-04-16 17:01:57.269,99839,15792,19354,89058,110470
2025-04-16 17:01:57.281,99830,15786,19344,89032,110450
2025-04-16 17:01:57.288,99842,15781,19337,89002,110427
2025-04-16 17:01:57.301,99850,15768,19331,88960,110400
2025-04-16 17:01:57.309,99830,15751,19319,88882,110339
2025-04-16 17:01:57.327,99817,15736,19297,88811,110279
2025-04-16 17:01:57.329,99803,15716,19283,88744,110217
2025-04-16 17:01:57.341,99801,15696,19263,88677,110149
2025-04-16 17:01:57.349,99795,15668,19229,88614,110091
2025-04-16 17:01:57.361,99739,15639,19196,88541,109998
2025-04-16 17:01:57.368,99692,15602,19149,88462,109919
2025-04-16 17:01:57.391,99651,15568,19105,88376,109823
2025-04-16 17:01:57.392,99598,15529,19059,88299,109740
2025-04-16 17:01:57.400,99538,15494,19011,88244,109703
2025-04-16 17:01:57.408,99491,15458,18968,88221,109653
2025-04-16 17:01:57.420,99447,15416,18924,88187,109604
2025-04-16 17:01:57.428,99379,15384,18873,88143,109552
2025-04-16 17:01:57.440,99340,15352,18836,88099,109507
2025-04-16 17:01:57.454,99297,15316,18796,88073,109473
2025-04-16 17:01:57.460,99260,15283,18763,88045,109424
2025-04-16 17:01:57.469,99241,15258,18730,88012,109393
2025-04-16 17:01:57.481,99216,15232,18705,87993,109349
2025-04-16 17:01:57.489,99190,15213,18681,87990,109360
2025-04-16 17:01:57.501,99174,15193,18658,87984,109348
2025-04-16 17:01:57.516,99170,15178,18645,87991,109358
2025-04-16 17:01:57.520,99163,15164,18630,88006,109376
2025-04-16 17:01:57.529,99166,15153,18620,88034,109398
2025-04-16 17:01:57.541,99166,15143,18614,88050,109412
2025-04-16 17:01:57.553,99158,15142,18604,88066,109421
2025-04-16 17:01:57.560,99169,15132,18606,88085,109448
2025-04-16 17:01:57.578,99159,15126,18596,88089,109440
2025-04-16 17:01:57.581,99158,15123,18589,88087,109453
2025-04-16 17:01:57.592,99142,15110,18585,88092,109444
2025-04-16 17:01:57.601,99137,15106,18576,88087,109448
2025-04-16 17:01:57.613,99125,15102,18570,88083,109443
2025-04-16 17:01:57.620,99123,15092,18564,88088,109440
2025-04-16 17:01:57.640,99120,15085,18557,88094,109465
2025-04-16 17:01:57.642,99098,15077,18552,88099,109454
2025-04-16 17:01:57.652,99084,15071,18545,88098,109450
2025-04-16 17:01:57.661,99072,15064,18534,88089,109447
2025-04-16 17:01:57.673,99056,15056,18527,88072,109428
2025-04-16 17:01:57.681,99048,15041,18522,88069,109405
2025-04-16 17:01:57.703,99043,15031,18512,88055,109401
2025-04-16 17:01:57.704,99028,15026,18502,88053,109389
2025-04-16 17:01:57.712,99014,15018,18495,88029,109370
2025-04-16 17:01:57.720,98999,15011,18482,88031,109379
2025-04-16 17:01:57.732,98990,14995,18479,88023,109356
2025-04-16 17:01:57.740,98978,14996,18467,88000,109350
2025-04-16 17:01:57.752,98976,14985,18466,87986,109328
2025-04-16 17:01:57.767,98977,14978,18455,87988,109331
2025-04-16 17:01:57.772,98969,14975,18452,87980,109325
2025-04-16 17:01:57.781,98976,14962,18446,87964,109307
2025-04-16 17:01:57.793,98961,14964,18442,87966,109307
2025-04-16 17:01:57.799,98961,14957,18437,87955,109314
2025-04-16 17:01:57.812,98978,14948,18432,87962,109302
2025-04-16 17:01:57.829,98975,14947,18429,87952,109311
2025-04-16 17:01:57.832,98979,14944,18424,87959,109322
2025-04-16 17:01:57.844,98970,14940,18425,87945,109317
2025-04-16 17:01:57.852,98973,14937,18419,87954,109309
2025-04-16 17:01:57.864,98970,14932,18412,87949,109307
2025-04-16 17:01:57.872,98972,14922,18408,87945,109312
2025-04-16 17:01:57.892,98957,14919,18407,87933,109281
2025-04-16 17:01:57.893,98959,14909,18399,87922,109289
2025-04-16 17:01:57.904,98952,14910,18398,87910,109277
2025-04-16 17:01:57.912,98966,14902,18394,87907,109278
2025-04-16 17:01:57.924,98965,14894,18384,87905,109242
2025-04-16 17:01:57.927,98965,14894,18384,87905,109242
2025-04-16 17:01:57.933,98948,14882,18372,87889,109249
2025-04-16 17:01:57.955,98927,14871,18356,87884,109218
2025-04-16 17:01:57.956,98903,14853,18338,87880,109218
2025-04-16 17:01:57.964,98890,14837,18309,87858,109183
2025-04-16 17:01:57.972,98863,14814,18283,87849,109190
2025-04-16 17:01:57.984,98838,14792,18251,87840,109155
2025-04-16 17:01:57.992,98827,14773,18220,87834,109168
2025-04-16 17:01:58.017,98807,14747,18190,87811,109126
2025-04-16 17:01:58.019,98802,14728,18162,87810,109117
2025-04-16 17:01:58.024,98778,14705,18132,87804,109107
2025-04-16 17:01:58.033,98791,14688,18108,87812,109106
2025-04-16 17:01:58.045,98778,14670,18082,87792,109089
2025-04-16 17:01:58.052,98772,14642,18057,87797,109064
2025-04-16 17:01:58.065,98771,14623,18036,87776,109055
2025-04-16 17:01:58.080,98761,14606,18014,87745,109030
2025-04-16 17:01:58.084,98758,14591,17993,87732,109007
2025-04-16 17:01:58.093,98763,14573,17979,87731,108979
2025-04-16 17:01:58.104,98764,14557,17958,87705,108977
2025-04-16 17:01:58.112,98766,14544,17937,87693,108955
2025-04-16 17:01:58.124,98766,14528,17930,87662,108946
2025-04-16 17:01:58.142,98769,14508,17914,87638,108922
2025-04-16 17:01:58.145,98766,14508,17903,87617,108929
2025-04-16 17:01:58.152,98776,14500,17891,87616,108913
2025-04-16 17:01:58.165,98779,14493,17886,87612,108909
2025-04-16 17:01:58.177,98785,14489,17878,87613,108911
2025-04-16 17:01:58.184,98782,14482,17867,87587,108902
2025-04-16 17:01:58.205,98771,14470,17858,87587,108883
2025-04-16 17:01:58.206,98768,14467,17849,87572,108867
2025-04-16 17:01:58.217,98745,14464,17843,87569,108862
2025-04-16 17:01:58.224,98747,14460,17830,87558,108838
2025-04-16 17:01:58.235,98729,14454,17823,87537,108825
2025-04-16 17:01:58.244,98725,14450,17814,87525,108819
2025-04-16 17:01:58.270,98718,14445,17805,87530,108796
2025-04-16 17:01:58.271,98693,14439,17795,87529,108801
2025-04-16 17:01:58.277,98689,14428,17785,87519,108781
2025-04-16 17:01:58.284,98669,14422,17772,87508,108755
2025-04-16 17:01:58.296,98661,14417,17769,87493,108725
2025-04-16 17:01:58.304,98641,14411,17762,87492,108718
2025-04-16 17:01:58.316,98638,14401,17757,87476,108690
2025-04-16 17:01:58.334,98619,14404,17749,87494,108694
2025-04-16 17:01:58.336,98617,14398,17742,87487,108689
2025-04-16 17:01:58.343,98605,14397,17739,87496,108678
2025-04-16 17:01:58.355,98595,14393,17739,87497,108681
2025-04-16 17:01:58.364,98599,14384,17738,87500,108663
2025-04-16 17:01:58.376,98606,14384,17737,87516,108676
2025-04-16 17:01:58.394,98620,14390,17735,87545,108688
2025-04-16 17:01:58.396,98623,14386,17742,87576,108726
2025-04-16 17:01:58.404,98633,14388,17739,87612,108758
2025-04-16 17:01:58.416,98626,14378,17735,87640,108781
2025-04-16 17:01:58.424,98620,14375,17731,87666,108785
2025-04-16 17:01:58.436,98609,14364,17726,87699,108810
2025-04-16 17:01:58.444,98613,14351,17721,87714,108817
2025-04-16 17:01:58.458,98628,14352,17718,87751,108825
2025-04-16 17:01:58.465,98637,14347,17717,87797,108847
2025-04-16 17:01:58.475,98663,14347,17722,87850,108883
2025-04-16 17:01:58.484,98695,14352,17724,87918,108954
2025-04-16 17:01:58.496,98721,14352,17726,87983,108998
2025-04-16 17:01:58.520,98721,14351,17725,88029,109037
2025-04-16 17:01:58.521,98732,14353,17726,88076,109055
2025-04-16 17:01:58.528,98753,14348,17727,88106,109080
2025-04-16 17:01:58.536,98760,14348,17725,88165,109123
2025-04-16 17:01:58.548,98772,14346,17718,88211,109148
2025-04-16 17:01:58.556,98768,14339,17706,88254,109159
2025-04-16 17:01:58.567,98768,14330,17698,88296,109184
2025-04-16 17:01:58.583,98774,14320,17675,88340,109212
2025-04-16 17:01:58.588,98759,14316,17654,88372,109237
2025-04-16 17:01:58.596,98753,14304,17638,88392,109225
2025-04-16 17:01:58.607,98743,14295,17617,88403,109233
2025-04-16 17:01:58.616,98747,14292,17599,88427,109238
2025-04-16 17:01:58.628,98726,14284,17580,88434,109226
2025-04-16 17:01:58.645,98706,14276,17565,88420,109212
2025-04-16 17:01:58.648,98675,14267,17552,88418,109182
2025-04-16 17:01:58.656,98641,14257,17538,88399,109149
2025-04-16 17:01:58.668,98622,14253,17525,88377,109130
2025-04-16 17:01:58.676,98590,14251,17517,88351,109096
2025-04-16 17:01:58.687,98574,14252,17509,88328,109062
2025-04-16 17:01:58.707,98575,14254,17510,88312,109055
2025-04-16 17:01:58.708,98597,14255,17513,88294,109046
2025-04-16 17:01:58.716,98602,14271,17521,88300,109057
2025-04-16 17:01:58.728,98641,14279,17533,88317,109074
2025-04-16 17:01:58.736,98683,14284,17541,88314,109106
2025-04-16 17:01:58.747,98722,14288,17549,88348,109128
2025-04-16 17:01:58.756,98762,14295,17553,88351,109149
2025-04-16 17:01:58.770,98804,14302,17560,88358,109176
2025-04-16 17:01:58.776,98845,14294,17560,88352,109173
2025-04-16 17:01:58.787,98873,14290,17556,88362,109165
2025-04-16 17:01:58.796,98875,14272,17536,88346,109182
2025-04-16 17:01:58.808,98895,14252,17524,88307,109163
2025-04-16 17:01:58.832,98875,14228,17508,88260,109120
2025-04-16 17:01:58.833,98849,14208,17483,88200,109055
2025-04-16 17:01:58.840,98801,14176,17460,88113,108975
2025-04-16 17:01:58.847,98756,14144,17430,88036,108882
2025-04-16 17:01:58.859,98715,14116,17401,87955,108798
2025-04-16 17:01:58.868,98662,14091,17378,87884,108706
2025-04-16 17:01:58.879,98620,14058,17356,87810,108629
2025-04-16 17:01:58.894,98604,14042,17339,87766,108581
2025-04-16 17:01:58.900,98584,14026,17322,87728,108534
2025-04-16 17:01:58.908,98576,14008,17315,87705,108517
2025-04-16 17:01:58.920,98560,14000,17306,87692,108476
2025-04-16 17:01:58.931,98574,13998,17305,87682,108460
2025-04-16 17:01:58.932,98574,13998,17305,87682,108460
2025-04-16 17:01:58.940,98603,13996,17300,87684,108473
2025-04-16 17:01:58.956,98615,14006,17300,87692,108478
2025-04-16 17:01:58.960,98616,14005,17302,87695,108486
2025-04-16 17:01:58.967,98617,14011,17302,87696,108479
2025-04-16 17:01:58.979,98605,14012,17300,87679,108475
2025-04-16 17:01:58.988,98605,14006,17297,87670,108447
2025-04-16 17:01:58.999,98588,14005,17295,87644,108421
2025-04-16 17:01:59.019,98585,14005,17294,87620,108400
2025-04-16 17:01:59.020,98587,14015,17292,87604,108385
2025-04-16 17:01:59.027,98574,14016,17289,87603,108370
2025-04-16 17:01:59.039,98557,14017,17293,87586,108369
2025-04-16 17:01:59.048,98538,14017,17284,87582,108349
2025-04-16 17:01:59.059,98513,14010,17279,87519,108295
2025-04-16 17:01:59.068,98487,14006,17276,87506,108278
2025-04-16 17:01:59.083,98466,14009,17272,87489,108249
2025-04-16 17:01:59.087,98453,14013,17271,87471,108223
2025-04-16 17:01:59.100,98443,14015,17273,87445,108224
2025-04-16 17:01:59.108,98426,14020,17280,87421,108207
2025-04-16 17:01:59.119,98403,14020,17279,87418,108187
2025-04-16 17:01:59.132,98378,14015,17267,87393,108177
2025-04-16 17:01:59.146,98343,14008,17261,87370,108141
2025-04-16 17:01:59.151,98292,13995,17247,87344,108100
2025-04-16 17:01:59.160,98261,13982,17224,87322,108057
2025-04-16 17:01:59.171,98211,13963,17208,87285,108031
2025-04-16 17:01:59.180,98192,13947,17191,87257,107970
2025-04-16 17:01:59.191,98152,13938,17175,87233,107951
2025-04-16 17:01:59.208,98123,13918,17152,87231,107936
2025-04-16 17:01:59.212,98108,13912,17137,87192,107901
2025-04-16 17:01:59.220,98084,13901,17124,87176,107880
2025-04-16 17:01:59.231,98078,13890,17113,87178,107855
2025-04-16 17:01:59.240,98044,13880,17105,87151,107848
2025-04-16 17:01:59.252,98027,13870,17091,87129,107822
2025-04-16 17:01:59.270,97992,13861,17082,87114,107800
2025-04-16 17:01:59.272,97975,13851,17072,87086,107759
2025-04-16 17:01:59.279,97962,13842,17062,87060,107745
2025-04-16 17:01:59.291,97943,13836,17060,87051,107722
2025-04-16 17:01:59.300,97943,13838,17060,87026,107705
2025-04-16 17:01:59.311,97941,13833,17061,87022,107704
2025-04-16 17:01:59.333,97932,13841,17066,87038,107712
2025-04-16 17:01:59.334,97932,13841,17066,87028,107715
2025-04-16 17:01:59.340,97930,13848,17072,87023,107710
2025-04-16 17:01:59.352,97937,13848,17073,87027,107719
2025-04-16 17:01:59.360,97937,13850,17071,87029,107712
2025-04-16 17:01:59.372,97927,13848,17074,87017,107705
2025-04-16 17:01:59.379,97906,13853,17076,87008,107705
2025-04-16 17:01:59.394,97890,13845,17070,86998,107689
2025-04-16 17:01:59.400,97876,13843,17068,86981,107672
2025-04-16 17:01:59.411,97864,13839,17062,86962,107651
2025-04-16 17:01:59.419,97850,13833,17062,86954,107632
2025-04-16 17:01:59.432,97850,13828,17060,86931,107596
2025-04-16 17:01:59.439,97847,13833,17057,86935,107607
2025-04-16 17:01:59.457,97848,13842,17068,86939,107617
2025-04-16 17:01:59.464,97867,13846,17070,86970,107638
2025-04-16 17:01:59.471,97877,13851,17080,86972,107654
2025-04-16 17:01:59.483,97882,13860,17081,86992,107670
2025-04-16 17:01:59.491,97884,13864,17088,87000,107683
2025-04-16 17:01:59.503,97877,13866,17089,87012,107687
2025-04-16 17:01:59.520,97877,13871,17091,87006,107684
2025-04-16 17:01:59.523,97862,13869,17090,86988,107670
2025-04-16 17:01:59.532,97861,13876,17096,86997,107667
2025-04-16 17:01:59.543,97865,13879,17097,87002,107673
2025-04-16 17:01:59.551,97855,13883,17105,86981,107656
2025-04-16 17:01:59.563,97874,13885,17105,86998,107670
2025-04-16 17:01:59.583,97870,13893,17113,87003,107698
2025-04-16 17:01:59.584,97880,13897,17119,87030,107710
2025-04-16 17:01:59.591,97889,13909,17123,87037,107712
2025-04-16 17:01:59.603,97890,13907,17131,87054,107746
2025-04-16 17:01:59.611,97885,13908,17128,87053,107725
2025-04-16 17:01:59.623,97867,13906,17130,87041,107716
2025-04-16 17:01:59.645,97857,13904,17125,87029,107686
2025-04-16 17:01:59.646,97856,13903,17128,87014,107666
2025-04-16 17:01:59.651,97834,13905,17124,86997,107658
2025-04-16 17:01:59.663,97827,13900,17127,86969,107654
2025-04-16 17:01:59.671,97826,13903,17128,86967,107650
2025-04-16 17:01:59.683,97818,13907,17135,86967,107661
2025-04-16 17:01:59.690,97825,13909,17136,86979,107658
2025-04-16 17:01:59.708,97819,13909,17136,86989,107673
2025-04-16 17:01:59.711,97808,13900,17135,87003,107682
2025-04-16 17:01:59.723,97806,13897,17124,86980,107652
2025-04-16 17:01:59.735,97765,13882,17108,86960,107619
2025-04-16 17:01:59.743,97746,13863,17091,86934,107601
2025-04-16 17:01:59.752,97727,13848,17075,86913,107579
2025-04-16 17:01:59.770,97696,13836,17052,86897,107536
2025-04-16 17:01:59.772,97677,13819,17034,86871,107500
2025-04-16 17:01:59.783,97653,13802,17022,86860,107491
2025-04-16 17:01:59.795,97653,13792,17008,86848,107466
2025-04-16 17:01:59.804,97643,13787,16996,86846,107457
2025-04-16 17:01:59.815,97653,13775,16987,86843,107470
2025-04-16 17:01:59.833,97656,13771,16981,86842,107474
2025-04-16 17:01:59.835,97670,13762,16976,86849,107475
2025-04-16 17:01:59.843,97673,13760,16962,86851,107476
2025-04-16 17:01:59.855,97668,13759,16954,86857,107476
2025-04-16 17:01:59.863,97667,13750,16957,86850,107466
2025-04-16 17:01:59.876,97682,13744,16951,86834,107466
2025-04-16 17:01:59.896,97674,13748,16950,86837,107467
2025-04-16 17:01:59.897,97698,13750,16955,86844,107477
2025-04-16 17:01:59.903,97709,13759,16955,86848,107494
2025-04-16 17:01:59.915,97736,13764,16960,86851,107499
2025-04-16 17:01:59.923,97731,13769,16965,86844,107507
2025-04-16 17:01:59.935,97733,13771,16965,86868,107523
2025-04-16 17:01:59.943,97739,13776,16975,86867,107534
2025-04-16 17:01:59.958,97733,13781,16977,86862,107516
2025-04-16 17:01:59.964,97735,13785,16982,86875,107518
2025-04-16 17:01:59.976,97746,13784,16982,86852,107516
2025-04-16 17:01:59.983,97742,13785,16982,86847,107515
2025-04-16 17:01:59.995,97728,13789,16987,86848,107522
2025-04-16 17:02:00.003,97727,13797,16985,86844,107524
2025-04-16 17:02:00.021,97732,13797,16984,86829,107510
2025-04-16 17:02:00.024,97721,13796,16986,86834,107512
2025-04-16 17:02:00.035,97722,13799,16984,86828,107505
2025-04-16 17:02:00.043,97714,13801,16990,86810,107489
2025-04-16 17:02:00.056,97708,13802,16992,86809,107499
2025-04-16 17:02:00.063,97708,13802,16992,86814,107493
2025-04-16 17:02:00.084,97721,13806,16989,86793,107489
2025-04-16 17:02:00.085,97724,13810,16999,86794,107495
2025-04-16 17:02:00.095,97734,13821,17002,86809,107502
2025-04-16 17:02:00.103,97739,13820,17007,86803,107510
2025-04-16 17:02:00.115,97734,13828,17012,86806,107511
2025-04-16 17:02:00.127,97731,13832,17013,86795,107501
2025-04-16 17:02:00.145,97728,13834,17019,86795,107508
2025-04-16 17:02:00.146,97728,13834,17019,86795,107508
2025-04-16 17:02:00.147,97735,13839,17024,86786,107506
2025-04-16 17:02:00.155,97731,13848,17031,86790,107512
2025-04-16 17:02:00.167,97724,13855,17032,86779,107511
2025-04-16 17:02:00.175,97718,13858,17039,86765,107505
2025-04-16 17:02:00.187,97702,13851,17041,86760,107490
2025-04-16 17:02:00.209,97697,13855,17038,86740,107479
2025-04-16 17:02:00.210,97705,13854,17044,86730,107474
2025-04-16 17:02:00.216,97696,13860,17048,86729,107468
2025-04-16 17:02:00.226,97709,13866,17051,86735,107471
2025-04-16 17:02:00.235,97710,13872,17054,86725,107473
2025-04-16 17:02:00.247,97721,13883,17064,86729,107483
2025-04-16 17:02:00.255,97716,13886,17070,86734,107502
2025-04-16 17:02:00.271,97728,13888,17074,86725,107478
2025-04-16 17:02:00.276,97710,13887,17072,86716,107472
2025-04-16 17:02:00.287,97696,13888,17069,86696,107463
2025-04-16 17:02:00.295,97685,13888,17071,86676,107444
2025-04-16 17:02:00.307,97673,13887,17060,86659,107446
2025-04-16 17:02:00.314,97664,13874,17052,86642,107426
2025-04-16 17:02:00.334,97636,13866,17040,86625,107424
2025-04-16 17:02:00.335,97599,13851,17023,86597,107373
2025-04-16 17:02:00.347,97570,13842,17012,86569,107344
2025-04-16 17:02:00.354,97548,13829,17001,86532,107299
2025-04-16 17:02:00.367,97539,13814,16994,86519,107271
2025-04-16 17:02:00.375,97533,13814,16983,86510,107250
2025-04-16 17:02:00.396,97532,13808,16977,86498,107234
2025-04-16 17:02:00.397,97525,13809,16977,86496,107244
2025-04-16 17:02:00.407,97527,13817,16982,86499,107244
2025-04-16 17:02:00.415,97560,13819,16984,86510,107270
2025-04-16 17:02:00.426,97563,13826,16990,86531,107294
2025-04-16 17:02:00.438,97591,13833,16996,86539,107308
2025-04-16 17:02:00.459,97613,13843,17006,86559,107330
2025-04-16 17:02:00.460,97631,13854,17018,86577,107358
2025-04-16 17:02:00.467,97654,13866,17031,86583,107397
2025-04-16 17:02:00.478,97666,13877,17042,86621,107425
2025-04-16 17:02:00.487,97663,13880,17049,86624,107427
2025-04-16 17:02:00.499,97662,13887,17056,86613,107424
2025-04-16 17:02:00.506,97653,13889,17056,86599,107408
2025-04-16 17:02:00.523,97641,13884,17056,86595,107399
2025-04-16 17:02:00.526,97638,13886,17057,86599,107404
2025-04-16 17:02:00.539,97638,13890,17057,86609,107408
2025-04-16 17:02:00.547,97635,13891,17056,86605,107412
2025-04-16 17:02:00.558,97631,13893,17058,86606,107397
2025-04-16 17:02:00.567,97630,13891,17058,86622,107424
2025-04-16 17:02:00.586,97636,13891,17062,86628,107422
2025-04-16 17:02:00.587,97634,13891,17059,86619,107416
2025-04-16 17:02:00.614,97648,13889,17058,86620,107428
2025-04-16 17:02:00.615,97644,13886,17056,86634,107440
2025-04-16 17:02:00.618,97654,13892,17063,86615,107436
2025-04-16 17:02:00.626,97667,13891,17064,86631,107458
2025-04-16 17:02:00.648,97681,13902,17071,86646,107475
2025-04-16 17:02:00.649,97686,13909,17077,86668,107483
2025-04-16 17:02:00.659,97699,13913,17078,86678,107515
2025-04-16 17:02:00.667,97718,13918,17086,86698,107534
2025-04-16 17:02:00.679,97723,13929,17088,86727,107561
2025-04-16 17:02:00.687,97743,13933,17090,86733,107576
2025-04-16 17:02:00.711,97743,13931,17099,86738,107582
2025-04-16 17:02:00.712,97746,13939,17101,86759,107598
2025-04-16 17:02:00.719,97770,13946,17104,86761,107609
2025-04-16 17:02:00.726,97770,13952,17116,86782,107628
2025-04-16 17:02:00.738,97777,13961,17118,86793,107659
2025-04-16 17:02:00.746,97801,13968,17126,86809,107657
2025-04-16 17:02:00.759,97805,13970,17134,86831,107682
2025-04-16 17:02:00.772,97805,13985,17141,86844,107704
2025-04-16 17:02:00.779,97818,13984,17148,86856,107697
2025-04-16 17:02:00.790,97817,13994,17155,86883,107736
2025-04-16 17:02:00.798,97822,14004,17168,86911,107743
2025-04-16 17:02:00.811,97840,14019,17174,86951,107775
2025-04-16 17:02:00.818,97834,14034,17184,86986,107817
2025-04-16 17:02:00.835,97808,14043,17192,87032,107862
2025-04-16 17:02:00.838,97764,14052,17187,87118,107930
2025-04-16 17:02:00.851,97747,14060,17189,87244,108022
2025-04-16 17:02:00.858,97729,14069,17191,87389,108156
2025-04-16 17:02:00.871,97757,14086,17190,87616,108326
2025-04-16 17:02:00.879,97772,14104,17203,87960,108611
2025-04-16 17:02:00.897,97800,14125,17210,88303,108887
2025-04-16 17:02:00.899,98035,14141,17220,88658,109206
2025-04-16 17:02:00.911,98381,14171,17228,89169,109715
2025-04-16 17:02:00.918,98780,14203,17231,89933,110415
2025-04-16 17:02:00.930,99120,14202,17197,90951,111307
2025-04-16 17:02:00.939,99385,14149,17117,92310,112357
2025-04-16 17:02:00.959,99456,14097,17053,93732,113309
2025-04-16 17:02:00.960,99200,14066,17047,94676,113745
2025-04-16 17:02:00.970,98071,14021,17166,95272,113972
2025-04-16 17:02:00.978,97762,14012,17185,95729,114133
2025-04-16 17:02:00.991,97517,14012,17223,95833,114042
2025-04-16 17:02:00.998,97240,14002,17254,95843,113942
2025-04-16 17:02:01.022,96984,13974,17267,95782,113799
2025-04-16 17:02:01.023,96808,13963,17301,95701,113605
2025-04-16 17:02:01.031,96628,13956,17312,95658,113481
2025-04-16 17:02:01.039,96381,13976,17353,95549,113328
2025-04-16 17:02:01.050,96168,14022,17405,95472,113269
2025-04-16 17:02:01.058,96011,14071,17471,95400,113270
2025-04-16 17:02:01.070,95904,14115,17540,95302,113271
2025-04-16 17:02:01.084,95869,14130,17580,95105,113195
2025-04-16 17:02:01.091,95860,14133,17617,94808,113015
2025-04-16 17:02:01.103,95769,14121,17639,94518,112797
2025-04-16 17:02:01.110,95555,14095,17637,94114,112432
2025-04-16 17:02:01.123,95503,14074,17602,93621,111981
2025-04-16 17:02:01.130,95685,14105,17643,93664,111933
2025-04-16 17:02:01.146,95833,14187,17737,93780,112007
2025-04-16 17:02:01.147,95833,14187,17737,93780,112007
2025-04-16 17:02:01.151,96022,14403,17938,93464,111969
2025-04-16 17:02:01.162,96272,14518,18056,93173,111879
2025-04-16 17:02:01.170,96578,14651,18194,92871,111798
2025-04-16 17:02:01.182,96951,14814,18360,92614,111790
2025-04-16 17:02:01.190,97355,14993,18543,92360,111814
2025-04-16 17:02:01.209,97739,15166,18716,92080,111802
2025-04-16 17:02:01.210,98140,15317,18877,91840,111796
2025-04-16 17:02:01.223,98586,15479,19032,91767,111913
2025-04-16 17:02:01.230,98939,15576,19119,91800,112099
2025-04-16 17:02:01.242,99560,15606,19154,91522,111965
2025-04-16 17:02:01.249,101050,15718,19164,90856,111470
2025-04-16 17:02:01.272,101859,15842,19315,90519,111343
2025-04-16 17:02:01.273,102586,15879,19403,90009,111110
2025-04-16 17:02:01.282,102872,15804,19339,89183,110489
2025-04-16 17:02:01.290,102434,15634,19112,88392,109772
2025-04-16 17:02:01.303,101564,15525,18891,87947,109219
2025-04-16 17:02:01.310,101102,15506,18805,88500,109567
2025-04-16 17:02:01.335,100949,15464,18754,89699,110448
2025-04-16 17:02:01.336,101074,15452,18740,90636,111179
2025-04-16 17:02:01.343,101521,15450,18834,91348,111702
2025-04-16 17:02:01.354,102055,15416,18913,91940,112233
2025-04-16 17:02:01.363,102059,15350,18877,92080,112306
2025-04-16 17:02:01.374,101968,15307,18852,91894,112064
2025-04-16 17:02:01.382,101914,15298,18846,91786,111970
2025-04-16 17:02:01.398,101876,15277,18823,91788,112003
2025-04-16 17:02:01.402,101811,15256,18803,91791,112013
2025-04-16 17:02:01.414,101703,15249,18780,91742,111962
2025-04-16 17:02:01.422,101431,15245,18665,91568,111806
2025-04-16 17:02:01.434,100622,15232,18535,91050,111146
2025-04-16 17:02:01.442,100548,15234,18525,90740,110902
2025-04-16 17:02:01.460,100470,15221,18509,90701,110856
2025-04-16 17:02:01.462,100429,15206,18489,90670,110831
2025-04-16 17:02:01.475,100425,15188,18478,90668,110816
2025-04-16 17:02:01.482,100422,15173,18466,90688,110798
2025-04-16 17:02:01.494,100444,15161,18462,90767,110846
2025-04-16 17:02:01.503,100536,15147,18455,90953,110976
2025-04-16 17:02:01.522,100562,15118,18429,91154,111142
2025-04-16 17:02:01.523,100555,15088,18398,91342,111251
2025-04-16 17:02:01.534,100514,15052,18364,91454,111306
2025-04-16 17:02:01.542,100516,15033,18340,91495,111316
2025-04-16 17:02:01.555,100532,15033,18334,91546,111368
2025-04-16 17:02:01.562,100595,15033,18330,91605,111443
2025-04-16 17:02:01.585,100650,15036,18323,91598,111453
2025-04-16 17:02:01.586,100716,15042,18322,91567,111415
2025-04-16 17:02:01.594,100750,15054,18330,91514,111399
2025-04-16 17:02:01.602,100747,15068,18335,91439,111351
2025-04-16 17:02:01.614,100724,15076,18345,91338,111268
2025-04-16 17:02:01.622,100662,15073,18335,91219,111157
2025-04-16 17:02:01.634,100593,15067,18325,91133,111067
2025-04-16 17:02:01.648,100528,15068,18324,91076,111027
2025-04-16 17:02:01.654,100492,15060,18315,91034,110998
2025-04-16 17:02:01.663,100473,15048,18306,91025,110988
2025-04-16 17:02:01.675,100472,15049,18301,91061,111005
2025-04-16 17:02:01.687,100495,15041,18301,91108,111049
2025-04-16 17:02:01.694,100508,15036,18300,91172,111080
2025-04-16 17:02:01.710,100526,15028,18295,91186,111095
2025-04-16 17:02:01.714,100537,15018,18282,91195,111074
2025-04-16 17:02:01.727,100524,15012,18271,91190,111067
2025-04-16 17:02:01.734,100508,15010,18263,91220,111063
2025-04-16 17:02:01.746,100480,14995,18253,91246,111063
2025-04-16 17:02:01.754,100447,14992,18244,91216,111025
2025-04-16 17:02:01.772,100403,14985,18233,91183,110981
2025-04-16 17:02:01.774,100349,14965,18214,91149,110932
2025-04-16 17:02:01.786,100309,14948,18193,91091,110865
2025-04-16 17:02:01.794,100283,14945,18183,91033,110824
2025-04-16 17:02:01.806,100276,14929,18170,91007,110767
2025-04-16 17:02:01.813,100246,14926,18158,90967,110723
2025-04-16 17:02:01.834,100239,14925,18149,90958,110732
2025-04-16 17:02:01.835,100194,14925,18141,90987,110743
2025-04-16 17:02:01.846,100137,14923,18133,91057,110793
2025-04-16 17:02:01.854,100097,14922,18138,91076,110812
2025-04-16 17:02:01.866,100062,14921,18138,91078,110794
2025-04-16 17:02:01.874,100021,14935,18143,91092,110805
2025-04-16 17:02:01.896,100008,14948,18154,91143,110862
2025-04-16 17:02:01.897,100027,14964,18168,91180,110886
2025-04-16 17:02:01.905,100053,14990,18194,91195,110904
2025-04-16 17:02:01.914,100105,15019,18228,91259,110975
2025-04-16 17:02:01.926,100106,15014,18228,91263,110978
2025-04-16 17:02:01.938,100075,15031,18232,91188,110908
2025-04-16 17:02:01.945,100030,15045,18251,91317,111035
2025-04-16 17:02:01.959,100030,15045,18251,91317,111035
2025-04-16 17:02:01.960,100013,15034,18245,91334,111051
2025-04-16 17:02:01.966,99985,15044,18245,91270,110996
2025-04-16 17:02:01.978,100008,15050,18248,91332,111046
2025-04-16 17:02:01.986,100115,15065,18266,91381,111097
2025-04-16 17:02:01.998,100196,15076,18282,91417,111169
2025-04-16 17:02:02.006,100230,15088,18287,91427,111195
2025-04-16 17:02:02.021,100223,15090,18289,91401,111166
2025-04-16 17:02:02.026,100181,15102,18295,91408,111176
2025-04-16 17:02:02.038,100174,15107,18301,91461,111196
2025-04-16 17:02:02.046,100173,15125,18311,91466,111209
2025-04-16 17:02:02.059,100196,15131,18311,91467,111211
2025-04-16 17:02:02.066,100167,15130,18308,91480,111215
2025-04-16 17:02:02.083,100127,15129,18297,91478,111212
2025-04-16 17:02:02.087,100087,15118,18291,91481,111225
2025-04-16 17:02:02.098,100020,15094,18269,91449,111174
2025-04-16 17:02:02.106,99952,15076,18242,91358,111078
2025-04-16 17:02:02.118,99852,15053,18218,91302,110998
2025-04-16 17:02:02.126,99782,15030,18203,91272,110952
2025-04-16 17:02:02.145,99729,15024,18195,91228,110895
2025-04-16 17:02:02.146,99673,15023,18181,91208,110861
2025-04-16 17:02:02.158,99586,15005,18165,91219,110878
2025-04-16 17:02:02.166,99439,14988,18140,91176,110797
2025-04-16 17:02:02.178,99151,14966,18121,91063,110670
2025-04-16 17:02:02.186,99109,14960,18115,91000,110606
2025-04-16 17:02:02.207,99079,14960,18113,90981,110591
2025-04-16 17:02:02.209,99069,14959,18113,90989,110600
2025-04-16 17:02:02.218,99089,14964,18116,90994,110594
2025-04-16 17:02:02.230,99109,14978,18127,91024,110632
2025-04-16 17:02:02.238,99140,14991,18144,91054,110681
2025-04-16 17:02:02.250,99168,14996,18149,91101,110723
2025-04-16 17:02:02.271,99162,15010,18155,91151,110750
2025-04-16 17:02:02.272,99174,15017,18165,91195,110795
2025-04-16 17:02:02.278,99182,15032,18177,91238,110862
2025-04-16 17:02:02.290,99206,15047,18191,91285,110900
2025-04-16 17:02:02.298,99234,15066,18205,91314,110924
2025-04-16 17:02:02.310,99262,15076,18217,91326,110933
2025-04-16 17:02:02.317,99273,15087,18227,91335,110956
2025-04-16 17:02:02.333,99290,15101,18241,91351,110985
2025-04-16 17:02:02.338,99292,15116,18246,91378,111028
2025-04-16 17:02:02.350,99313,15122,18261,91388,111039
2025-04-16 17:02:02.358,99323,15128,18264,91400,111049
2025-04-16 17:02:02.369,99347,15132,18270,91400,111071
2025-04-16 17:02:02.378,99358,15136,18274,91382,111065
2025-04-16 17:02:02.396,99376,15144,18277,91397,111077
2025-04-16 17:02:02.398,99399,15149,18288,91428,111104
2025-04-16 17:02:02.409,99414,15154,18294,91434,111115
2025-04-16 17:02:02.418,99440,15162,18300,91452,111146
2025-04-16 17:02:02.430,99451,15166,18305,91472,111179
2025-04-16 17:02:02.438,99463,15165,18309,91505,111194
2025-04-16 17:02:02.459,99453,15160,18306,91510,111194
2025-04-16 17:02:02.460,99440,15155,18300,91499,111211
2025-04-16 17:02:02.470,99416,15150,18293,91523,111198
2025-04-16 17:02:02.478,99375,15138,18280,91502,111192
2025-04-16 17:02:02.490,99323,15121,18270,91497,111160
2025-04-16 17:02:02.498,99264,15107,18256,91463,111112
2025-04-16 17:02:02.521,99226,15092,18248,91431,111063
2025-04-16 17:02:02.522,99193,15081,18232,91385,111014
2025-04-16 17:02:02.529,99173,15080,18229,91352,110984
2025-04-16 17:02:02.538,99151,15077,18227,91377,110998
2025-04-16 17:02:02.550,99118,15073,18220,91381,111003
2025-04-16 17:02:02.561,99105,15070,18212,91380,111001
2025-04-16 17:02:02.569,99089,15072,18210,91398,111009
2025-04-16 17:02:02.584,99075,15061,18206,91400,111006
2025-04-16 17:02:02.590,99049,15051,18191,91408,110992
2025-04-16 17:02:02.601,98999,15037,18176,91377,110953
2025-04-16 17:02:02.610,98966,15026,18167,91351,110908
2025-04-16 17:02:02.621,98935,15019,18156,91350,110901
2025-04-16 17:02:02.630,98905,15005,18149,91323,110870
2025-04-16 17:02:02.646,98879,14998,18139,91304,110841
2025-04-16 17:02:02.650,98849,14993,18134,91313,110847
2025-04-16 17:02:02.662,98815,14981,18129,91295,110841
2025-04-16 17:02:02.669,98801,14976,18115,91311,110829
2025-04-16 17:02:02.682,98787,14970,18116,91295,110815
2025-04-16 17:02:02.689,98771,14965,18103,91292,110808
2025-04-16 17:02:02.709,98755,14956,18087,91299,110809
2025-04-16 17:02:02.710,98743,14948,18084,91285,110813
2025-04-16 17:02:02.721,98721,14944,18083,91279,110793
2025-04-16 17:02:02.730,98703,14937,18076,91273,110787
2025-04-16 17:02:02.742,98694,14935,18065,91268,110778
2025-04-16 17:02:02.749,98683,14927,18063,91278,110780
2025-04-16 17:02:02.772,98687,14929,18067,91294,110811
2025-04-16 17:02:02.773,98685,14932,18067,91294,110802
2025-04-16 17:02:02.782,98675,14933,18072,91314,110811
2025-04-16 17:02:02.790,98698,14936,18074,91318,110817
2025-04-16 17:02:02.801,98722,14951,18086,91317,110828
2025-04-16 17:02:02.810,98761,14972,18106,91386,110890
2025-04-16 17:02:02.834,98782,14964,18100,91398,110936
2025-04-16 17:02:02.835,98765,14966,18091,91304,110837
2025-04-16 17:02:02.843,98740,14985,18115,91333,110899
2025-04-16 17:02:02.853,98733,14984,18121,91424,111001
2025-04-16 17:02:02.861,98751,14985,18118,91349,110925
2025-04-16 17:02:02.874,98769,15000,18127,91303,110892
2025-04-16 17:02:02.882,98800,15017,18143,91347,110944
2025-04-16 17:02:02.896,98852,15051,18174,91389,111032
2025-04-16 17:02:02.901,98949,15089,18204,91445,111117
2025-04-16 17:02:02.913,99042,15115,18218,91514,111224
2025-04-16 17:02:02.921,99112,15135,18240,91535,111265
2025-04-16 17:02:02.934,99202,15166,18265,91541,111295
2025-04-16 17:02:02.941,99375,15195,18293,91542,111357
2025-04-16 17:02:02.959,99600,15218,18326,91563,111425
2025-04-16 17:02:02.960,99600,15218,18326,91563,111425
2025-04-16 17:02:02.962,99836,15259,18367,91590,111548
2025-04-16 17:02:02.973,99933,15269,18383,91572,111551
2025-04-16 17:02:02.982,99999,15282,18399,91564,111579
2025-04-16 17:02:02.994,100082,15285,18410,91582,111631
2025-04-16 17:02:03.001,100160,15292,18413,91587,111667
2025-04-16 17:02:03.021,100225,15298,18416,91572,111686
2025-04-16 17:02:03.023,100308,15297,18425,91552,111661
2025-04-16 17:02:03.033,100372,15302,18430,91507,111660
2025-04-16 17:02:03.041,100471,15312,18440,91528,111703
2025-04-16 17:02:03.054,100592,15320,18446,91612,111781
2025-04-16 17:02:03.061,100739,15335,18458,91731,111915
2025-04-16 17:02:03.085,100914,15341,18457,91886,112092
2025-04-16 17:02:03.086,101088,15350,18457,92080,112307
2025-04-16 17:02:03.093,101220,15365,18463,92256,112494
2025-04-16 17:02:03.102,101300,15377,18472,92465,112691
2025-04-16 17:02:03.114,101305,15389,18469,92622,112812
2025-04-16 17:02:03.121,101217,15389,18457,92727,112903
2025-04-16 17:02:03.134,101036,15371,18419,92788,112946
2025-04-16 17:02:03.149,100829,15353,18372,92925,113018
2025-04-16 17:02:03.153,100694,15330,18314,93261,113222
2025-04-16 17:02:03.165,100644,15322,18279,93735,113542
2025-04-16 17:02:03.173,100616,15316,18250,94289,113913
2025-04-16 17:02:03.186,100660,15288,18201,94857,114265
2025-04-16 17:02:03.193,100676,15273,18162,95502,114642
2025-04-16 17:02:03.211,100611,15245,18122,96012,114910
2025-04-16 17:02:03.214,100456,15178,18052,96406,115045
2025-04-16 17:02:03.225,100260,15168,18039,96692,115087
2025-04-16 17:02:03.234,99617,15179,18048,96807,115043
2025-04-16 17:02:03.246,99014,15156,18093,96710,114863
2025-04-16 17:02:03.253,97984,15098,18146,96681,114761
2025-04-16 17:02:03.275,97293,15036,18095,96588,114655
2025-04-16 17:02:03.276,96727,14957,18021,96316,114382
2025-04-16 17:02:03.286,96213,14910,17970,95989,114082
2025-04-16 17:02:03.293,95694,14893,17937,95536,113676
2025-04-16 17:02:03.306,95204,14862,17852,94925,113165
2025-04-16 17:02:03.313,94923,14859,17853,94575,112833
2025-04-16 17:02:03.338,94802,14896,17909,94183,112504
2025-04-16 17:02:03.339,94710,14951,17987,93914,112324
2025-04-16 17:02:03.345,94634,14996,18079,93602,112117
2025-04-16 17:02:03.354,94616,15052,18166,93219,111868
2025-04-16 17:02:03.366,94697,15116,18262,92883,111659
2025-04-16 17:02:03.373,94885,15188,18373,92737,111605
2025-04-16 17:02:03.386,95080,15264,18476,92729,111651
2025-04-16 17:02:03.400,95223,15333,18571,92691,111658
2025-04-16 17:02:03.405,95346,15398,18673,92561,111550
2025-04-16 17:02:03.414,95475,15468,18787,92346,111391
2025-04-16 17:02:03.426,95646,15543,18926,92002,111141
2025-04-16 17:02:03.437,95912,15634,19085,91536,110782
2025-04-16 17:02:03.445,96341,15723,19259,90909,110320
2025-04-16 17:02:03.462,96956,15846,19441,90233,109792
2025-04-16 17:02:03.466,97697,15986,19630,89694,109406
2025-04-16 17:02:03.477,98401,16107,19794,89314,109180
2025-04-16 17:02:03.485,98822,16187,19889,89039,109003
2025-04-16 17:02:03.497,99157,16244,19966,88870,108921
2025-04-16 17:02:03.505,99455,16292,20044,88770,108851
2025-04-16 17:02:03.526,99660,16334,20108,88645,108764
2025-04-16 17:02:03.527,99958,16386,20148,88539,108697
2025-04-16 17:02:03.536,100335,16420,20200,88463,108611
2025-04-16 17:02:03.546,100778,16464,20242,88336,108473
2025-04-16 17:02:03.557,101291,16494,20284,88239,108361
2025-04-16 17:02:03.566,101808,16517,20316,88120,108230
2025-04-16 17:02:03.588,102274,16540,20350,87980,108090
2025-04-16 17:02:03.590,102667,16561,20371,87871,107971
2025-04-16 17:02:03.597,102958,16570,20376,87809,107907
2025-04-16 17:02:03.605,103141,16578,20376,87787,107849
2025-04-16 17:02:03.618,103259,16588,20372,87785,107859
2025-04-16 17:02:03.625,103365,16599,20377,87841,107886
2025-04-16 17:02:03.651,103514,16627,20403,87911,107943
2025-04-16 17:02:03.652,103594,16620,20449,87957,107991
2025-04-16 17:02:03.657,103663,16611,20513,87762,107765
2025-04-16 17:02:03.666,103881,16603,20548,87544,107538
2025-04-16 17:02:03.676,104112,16599,20564,87410,107388
2025-04-16 17:02:03.685,104307,16591,20574,87274,107219
2025-04-16 17:02:03.697,104498,16587,20583,87181,107141
2025-04-16 17:02:03.713,104674,16586,20584,87112,107056
2025-04-16 17:02:03.717,104751,16586,20580,87069,107002
2025-04-16 17:02:03.729,104794,16583,20574,87015,106974
2025-04-16 17:02:03.737,104818,16576,20568,86974,106930
2025-04-16 17:02:03.749,104834,16566,20552,86946,106918
2025-04-16 17:02:03.756,104810,16555,20534,86911,106879
2025-04-16 17:02:03.776,104949,16554,20518,86900,106869
2025-04-16 17:02:03.777,105122,16553,20518,86896,106855
2025-04-16 17:02:03.789,105257,16567,20549,86936,106898
2025-04-16 17:02:03.798,105377,16584,20567,86977,106962
2025-04-16 17:02:03.809,105417,16625,20552,87113,107123
2025-04-16 17:02:03.817,105488,16671,20565,87288,107308
2025-04-16 17:02:03.839,105521,16718,20592,87438,107495
2025-04-16 17:02:03.840,105544,16766,20625,87583,107669
2025-04-16 17:02:03.849,105727,16791,20653,87728,107824
2025-04-16 17:02:03.857,105824,16800,20674,87798,107907
2025-04-16 17:02:03.869,105918,16796,20680,87831,107921
2025-04-16 17:02:03.877,106013,16777,20682,87799,107876
2025-04-16 17:02:03.902,106061,16755,20679,87735,107822
2025-04-16 17:02:03.903,106236,16711,20664,87667,107735
2025-04-16 17:02:03.909,106281,16669,20668,87577,107581
2025-04-16 17:02:03.917,106187,16626,20662,87492,107489
2025-04-16 17:02:03.929,105921,16576,20615,87464,107435
2025-04-16 17:02:03.941,105736,16525,20540,87340,107274
2025-04-16 17:02:03.949,105598,16495,20506,87116,106991
2025-04-16 17:02:03.965,105550,16486,20489,87076,106974
2025-04-16 17:02:03.966,105550,16486,20489,87076,106974
2025-04-16 17:02:03.969,105471,16486,20467,87092,106993
2025-04-16 17:02:03.981,105461,16487,20468,87122,107036
2025-04-16 17:02:03.989,105472,16499,20470,87144,107057
2025-04-16 17:02:04.001,105484,16501,20471,87150,107079
2025-04-16 17:02:04.009,105482,16520,20474,87162,107102
2025-04-16 17:02:04.027,105464,16538,20483,87230,107172
2025-04-16 17:02:04.029,105458,16564,20482,87324,107294
2025-04-16 17:02:04.042,105457,16596,20493,87431,107421
2025-04-16 17:02:04.049,105456,16615,20487,87535,107535
2025-04-16 17:02:04.062,105472,16633,20489,87628,107652
2025-04-16 17:02:04.069,105484,16640,20486,87689,107701
2025-04-16 17:02:04.090,105515,16641,20490,87718,107735
2025-04-16 17:02:04.091,105566,16644,20491,87717,107735
2025-04-16 17:02:04.101,105592,16643,20494,87703,107721
2025-04-16 17:02:04.109,105605,16644,20494,87680,107711
2025-04-16 17:02:04.121,105609,16639,20495,87698,107721
2025-04-16 17:02:04.129,105615,16645,20502,87721,107738
2025-04-16 17:02:04.152,105623,16651,20501,87733,107771
2025-04-16 17:02:04.153,105625,16655,20506,87766,107805
2025-04-16 17:02:04.161,105644,16667,20508,87815,107858
2025-04-16 17:02:04.169,105662,16680,20514,87874,107912
2025-04-16 17:02:04.181,105702,16688,20517,87914,107968
2025-04-16 17:02:04.192,105732,16693,20524,87927,108003
2025-04-16 17:02:04.201,105775,16696,20521,87936,108016
2025-04-16 17:02:04.216,105799,16697,20520,87930,108000
2025-04-16 17:02:04.222,105801,16694,20508,87941,108000
2025-04-16 17:02:04.233,105785,16698,20500,87971,108034
2025-04-16 17:02:04.241,105760,16694,20494,88005,108077
2025-04-16 17:02:04.253,105726,16700,20480,88051,108112
2025-04-16 17:02:04.261,105668,16695,20478,88116,108185
2025-04-16 17:02:04.278,105645,16700,20471,88160,108229
2025-04-16 17:02:04.281,105625,16701,20470,88208,108291
2025-04-16 17:02:04.293,105614,16703,20466,88267,108325
2025-04-16 17:02:04.301,105625,16704,20469,88304,108383
2025-04-16 17:02:04.313,105662,16688,20470,88307,108391
2025-04-16 17:02:04.321,105723,16665,20464,88239,108294
2025-04-16 17:02:04.340,105788,16637,20452,88133,108192
2025-04-16 17:02:04.342,105853,16606,20447,88004,108036
2025-04-16 17:02:04.353,105907,16563,20443,87878,107900
2025-04-16 17:02:04.361,105999,16514,20425,87715,107707
2025-04-16 17:02:04.373,105964,16470,20406,87545,107502
2025-04-16 17:02:04.381,105918,16437,20378,87430,107379
2025-04-16 17:02:04.403,105792,16417,20335,87384,107321
2025-04-16 17:02:04.404,105652,16413,20287,87395,107325
2025-04-16 17:02:04.413,105488,16419,20245,87482,107433
2025-04-16 17:02:04.420,105372,16444,20208,87623,107588
2025-04-16 17:02:04.433,105300,16472,20175,87778,107741
2025-04-16 17:02:04.445,105205,16509,20160,87915,107929
2025-04-16 17:02:04.466,105098,16536,20160,88089,108123
2025-04-16 17:02:04.467,104992,16562,20164,88241,108309
2025-04-16 17:02:04.473,104920,16588,20173,88378,108471
2025-04-16 17:02:04.484,104901,16597,20177,88521,108615
2025-04-16 17:02:04.493,104887,16603,20181,88591,108724
2025-04-16 17:02:04.505,104879,16589,20180,88628,108757
2025-04-16 17:02:04.512,104905,16589,20183,88637,108729
2025-04-16 17:02:04.529,104919,16572,20182,88615,108734
2025-04-16 17:02:04.533,104897,16557,20176,88606,108711
2025-04-16 17:02:04.545,104802,16537,20157,88554,108677
2025-04-16 17:02:04.553,104741,16521,20135,88543,108665
2025-04-16 17:02:04.565,104780,16496,20108,88522,108613
2025-04-16 17:02:04.573,104723,16486,20100,88494,108579
2025-04-16 17:02:04.591,104709,16482,20090,88480,108544
2025-04-16 17:02:04.593,104696,16484,20078,88449,108513
2025-04-16 17:02:04.605,104682,16490,20077,88455,108532
2025-04-16 17:02:04.613,104640,16500,20069,88514,108591
2025-04-16 17:02:04.625,104586,16521,20073,88604,108681
2025-04-16 17:02:04.632,104521,16535,20076,88696,108810
2025-04-16 17:02:04.654,104481,16556,20083,88788,108909
2025-04-16 17:02:04.655,104426,16576,20093,88924,109049
2025-04-16 17:02:04.665,104388,16600,20092,89067,109231
2025-04-16 17:02:04.676,104343,16614,20098,89193,109386
2025-04-16 17:02:04.684,104310,16627,20096,89310,109510
2025-04-16 17:02:04.697,104283,16630,20096,89392,109592
2025-04-16 17:02:04.717,104278,16631,20093,89449,109628
2025-04-16 17:02:04.718,104275,16630,20093,89466,109671
2025-04-16 17:02:04.725,104246,16629,20092,89470,109690
2025-04-16 17:02:04.736,104216,16624,20086,89478,109682
2025-04-16 17:02:04.745,104181,16611,20081,89494,109697
2025-04-16 17:02:04.756,104136,16610,20071,89512,109711
2025-04-16 17:02:04.780,104100,16597,20061,89530,109730
2025-04-16 17:02:04.781,104100,16597,20061,89530,109730
2025-04-16 17:02:04.782,104060,16580,20047,89500,109693
2025-04-16 17:02:04.785,104054,16573,20036,89477,109655
2025-04-16 17:02:04.797,104044,16571,20033,89456,109657
2025-04-16 17:02:04.804,104039,16554,20023,89441,109645
2025-04-16 17:02:04.817,104056,16542,20018,89394,109568
2025-04-16 17:02:04.825,104108,16516,20015,89282,109448
2025-04-16 17:02:04.842,104165,16496,20014,89144,109311
2025-04-16 17:02:04.845,104239,16465,20022,89021,109190
2025-04-16 17:02:04.857,104321,16421,20019,88870,109030
2025-04-16 17:02:04.865,104388,16373,20022,88726,108884
2025-04-16 17:02:04.877,104460,16314,20023,88573,108719
2025-04-16 17:02:04.884,104360,16259,20012,88448,108618
2025-04-16 17:02:04.905,104210,16169,19916,88224,108304
2025-04-16 17:02:04.908,104201,16011,19808,87729,107808
2025-04-16 17:02:04.917,104456,15871,19742,86982,106985
2025-04-16 17:02:04.928,104609,15766,19690,86191,106178
2025-04-16 17:02:04.937,104682,15713,19653,85609,105551
2025-04-16 17:02:04.948,104299,15738,19644,85326,105269
2025-04-16 17:02:04.968,103974,15818,19664,85578,105575
2025-04-16 17:02:04.969,103722,15880,19697,85929,105934
2025-04-16 17:02:04.977,103651,15983,19750,86430,106473
2025-04-16 17:02:04.989,103719,16036,19796,86958,107028
2025-04-16 17:02:04.996,103773,16081,19826,87157,107211
2025-04-16 17:02:05.009,103621,16123,19842,87263,107345
2025-04-16 17:02:05.016,103337,16181,19844,87444,107541
2025-04-16 17:02:05.033,103156,16234,19827,87728,107884
2025-04-16 17:02:05.037,103412,16277,19808,87928,108092
2025-04-16 17:02:05.048,103575,16268,19788,88074,108224
2025-04-16 17:02:05.057,103682,16277,19797,88055,108181
2025-04-16 17:02:05.069,103737,16266,19793,88060,108196
2025-04-16 17:02:05.076,103764,16245,19795,88023,108113
2025-04-16 17:02:05.094,103724,16225,19784,87952,108047
2025-04-16 17:02:05.097,103697,16195,19765,87936,108026
2025-04-16 17:02:05.110,103578,16155,19772,87932,107985
2025-04-16 17:02:05.117,103428,16118,19787,87896,107944
2025-04-16 17:02:05.129,103371,16111,19772,87901,107949
2025-04-16 17:02:05.140,103317,16097,19750,87887,107935
2025-04-16 17:02:05.157,103242,16092,19728,87887,107924
2025-04-16 17:02:05.160,103145,16087,19717,87905,107969
2025-04-16 17:02:05.169,103003,16100,19698,87962,108033
2025-04-16 17:02:05.180,102957,16115,19675,88045,108115
2025-04-16 17:02:05.189,102926,16135,19641,88117,108196
2025-04-16 17:02:05.200,103042,16143,19623,88187,108270
2025-04-16 17:02:05.220,103184,16156,19607,88248,108315
2025-04-16 17:02:05.222,103295,16166,19588,88281,108348
2025-04-16 17:02:05.229,103325,16166,19584,88316,108376
2025-04-16 17:02:05.241,103341,16169,19586,88367,108444
2025-04-16 17:02:05.248,103318,16166,19586,88399,108488
2025-04-16 17:02:05.261,103311,16162,19580,88437,108493
2025-04-16 17:02:05.269,103317,16144,19580,88436,108476
2025-04-16 17:02:05.283,103308,16121,19573,88374,108408
2025-04-16 17:02:05.288,103271,16094,19576,88263,108312
2025-04-16 17:02:05.300,103263,16073,19588,88167,108203
2025-04-16 17:02:05.309,103274,16055,19593,88056,108108
2025-04-16 17:02:05.321,103288,16033,19599,87966,107999
2025-04-16 17:02:05.328,103323,16007,19599,87854,107894
2025-04-16 17:02:05.345,103345,15970,19595,87697,107715
2025-04-16 17:02:05.349,103373,15931,19595,87519,107491
2025-04-16 17:02:05.360,103420,15890,19602,87276,107260
2025-04-16 17:02:05.373,103474,15860,19590,87068,107017
2025-04-16 17:02:05.381,103555,15829,19567,86875,106815
2025-04-16 17:02:05.393,103620,15801,19552,86745,106685
2025-04-16 17:02:05.408,103681,15775,19536,86619,106541
2025-04-16 17:02:05.412,103736,15745,19514,86479,106364
2025-04-16 17:02:05.420,103807,15705,19499,86296,106181
2025-04-16 17:02:05.432,103828,15669,19470,86094,105964
2025-04-16 17:02:05.441,103795,15639,19434,85900,105757
2025-04-16 17:02:05.453,103743,15611,19401,85742,105591
2025-04-16 17:02:05.470,103713,15586,19376,85649,105494
2025-04-16 17:02:05.473,103691,15574,19361,85587,105432
2025-04-16 17:02:05.481,103698,15578,19355,85547,105401
2025-04-16 17:02:05.492,103710,15604,19363,85597,105480
2025-04-16 17:02:05.500,103723,15636,19383,85715,105621
2025-04-16 17:02:05.512,103713,15687,19416,85920,105848
2025-04-16 17:02:05.533,103781,15744,19462,86175,106136
2025-04-16 17:02:05.534,103989,15820,19477,86488,106473
2025-04-16 17:02:05.540,104187,15895,19492,86783,106804
2025-04-16 17:02:05.552,104329,15963,19519,87048,107081
2025-04-16 17:02:05.561,104346,15996,19553,87276,107359
2025-04-16 17:02:05.573,104354,16011,19561,87432,107527
2025-04-16 17:02:05.576,104354,16011,19561,87432,107527
2025-04-16 17:02:05.580,104257,16028,19556,87647,107786
2025-04-16 17:02:05.596,104199,16036,19549,87775,107901
2025-04-16 17:02:05.605,104129,16050,19543,87928,108066
2025-04-16 17:02:05.613,104032,16056,19537,88077,108237
2025-04-16 17:02:05.625,103939,16068,19531,88238,108372
2025-04-16 17:02:05.632,103853,16077,19530,88366,108527
2025-04-16 17:02:05.645,103778,16089,19536,88497,108683
2025-04-16 17:02:05.660,103719,16100,19531,88627,108802
2025-04-16 17:02:05.664,103676,16118,19545,88762,108958
2025-04-16 17:02:05.672,103657,16143,19555,88943,109125
2025-04-16 17:02:05.684,103682,16165,19562,89117,109309
2025-04-16 17:02:05.692,103694,16176,19573,89284,109469
2025-04-16 17:02:05.705,103716,16187,19575,89421,109636
2025-04-16 17:02:05.723,103730,16197,19575,89557,109777
2025-04-16 17:02:05.724,103742,16202,19575,89710,109927
2025-04-16 17:02:05.732,103768,16214,19568,89864,110084
2025-04-16 17:02:05.744,103917,16285,19601,90099,110367
2025-04-16 17:02:05.752,104114,16366,19628,90691,111079
2025-04-16 17:02:05.764,104009,16393,19614,91270,111688
2025-04-16 17:02:05.772,103797,16352,19562,91650,112082
2025-04-16 17:02:05.787,103631,16265,19493,91769,112146
2025-04-16 17:02:05.793,103484,16117,19378,91428,111753
2025-04-16 17:02:05.804,103317,15955,19242,90717,110989
2025-04-16 17:02:05.812,103128,15809,19098,89912,110159
2025-04-16 17:02:05.824,102985,15738,18957,89332,109531
2025-04-16 17:02:05.832,102727,15704,18844,89240,109410
2025-04-16 17:02:05.849,102347,15634,18873,89216,109322
2025-04-16 17:02:05.856,101620,15537,18918,89031,109148
2025-04-16 17:02:05.864,101622,15440,18867,88744,108824
2025-04-16 17:02:05.876,101582,15363,18822,88289,108346
2025-04-16 17:02:05.885,101448,15291,18774,88001,108010
2025-04-16 17:02:05.896,101278,15219,18717,87800,107773
2025-04-16 17:02:05.912,101084,15147,18661,87621,107532
2025-04-16 17:02:05.916,100921,15090,18614,87494,107380
2025-04-16 17:02:05.924,100829,15041,18585,87394,107243
2025-04-16 17:02:05.936,100766,14998,18562,87325,107145
2025-04-16 17:02:05.944,100741,14902,18501,87208,106943
2025-04-16 17:02:05.956,100701,14848,18469,86845,106524
2025-04-16 17:02:05.975,100562,14848,18448,86697,106407
2025-04-16 17:02:05.976,100340,14891,18443,86875,106609
2025-04-16 17:02:05.985,100121,14929,18441,87358,107111
2025-04-16 17:02:05.996,99956,14929,18420,87796,107569
2025-04-16 17:02:06.004,99778,14896,18390,88067,107801
2025-04-16 17:02:06.016,99649,14895,18422,88041,107741
2025-04-16 17:02:06.024,99537,14876,18427,88169,107879
2025-04-16 17:02:06.039,99646,14880,18373,88276,108017
2025-04-16 17:02:06.044,99840,14873,18329,88303,108030
2025-04-16 17:02:06.056,99810,14859,18315,88340,108069
2025-04-16 17:02:06.064,99638,14848,18304,88344,108085
2025-04-16 17:02:06.076,99537,14806,18274,88539,108274
2025-04-16 17:02:06.084,99608,14769,18259,88658,108330
2025-04-16 17:02:06.101,99833,14768,18298,88667,108400
2025-04-16 17:02:06.105,99792,14769,18292,88434,108216
2025-04-16 17:02:06.116,99758,14771,18277,88410,108225
2025-04-16 17:02:06.123,99678,14751,18257,88308,108124
2025-04-16 17:02:06.136,99589,14739,18237,88090,107895
2025-04-16 17:02:06.144,99435,14730,18210,87933,107761
2025-04-16 17:02:06.164,99189,14710,18135,87896,107724
2025-04-16 17:02:06.168,98943,14697,18072,87933,107733
2025-04-16 17:02:06.177,98637,14693,18053,88049,107806
2025-04-16 17:02:06.187,98425,14696,18019,88137,107921
2025-04-16 17:02:06.196,98310,14708,18007,88187,107966
2025-04-16 17:02:06.208,98253,14696,18007,88178,107955
2025-04-16 17:02:06.227,98275,14711,18010,88101,107881
2025-04-16 17:02:06.228,98327,14729,18038,88002,107818
2025-04-16 17:02:06.236,98402,14756,18075,87939,107786
2025-04-16 17:02:06.247,98455,14792,18117,87925,107802
2025-04-16 17:02:06.256,98559,14825,18158,87978,107899
2025-04-16 17:02:06.268,98709,14855,18196,88055,107997
2025-04-16 17:02:06.275,98908,14896,18249,88144,108098
2025-04-16 17:02:06.289,99141,14958,18316,88246,108267
2025-04-16 17:02:06.296,99299,15059,18419,88513,108576
2025-04-16 17:02:06.308,99435,15164,18512,88942,109076
2025-04-16 17:02:06.317,99576,15279,18606,89513,109700
2025-04-16 17:02:06.328,99731,15372,18682,90235,110469
2025-04-16 17:02:06.335,99896,15446,18753,90984,111220
2025-04-16 17:02:06.352,100064,15481,18806,91600,111827
2025-04-16 17:02:06.356,100158,15475,18836,91970,112180
2025-04-16 17:02:06.368,100182,15429,18833,92054,112177
2025-04-16 17:02:06.376,100143,15370,18810,91968,112019
2025-04-16 17:02:06.387,99350,15148,18720,91649,111541
2025-04-16 17:02:06.396,98746,15011,18684,90280,109766
2025-04-16 17:02:06.415,98841,15034,18693,89802,109257
2025-04-16 17:02:06.416,98908,15063,18697,90015,109484
2025-04-16 17:02:06.428,98981,15088,18696,90232,109734
2025-04-16 17:02:06.436,99084,15119,18699,90429,109951
2025-04-16 17:02:06.448,99223,15148,18696,90638,110176
2025-04-16 17:02:06.460,99484,15188,18687,90897,110465
2025-04-16 17:02:06.477,99933,15292,18690,91374,111035
2025-04-16 17:02:06.481,100645,15454,18728,92186,112069
2025-04-16 17:02:06.488,101047,15534,18749,93223,113242
2025-04-16 17:02:06.499,101130,15539,18735,93686,113732
2025-04-16 17:02:06.508,101248,15550,18729,93801,113846
2025-04-16 17:02:06.520,101380,15557,18725,93939,113981
2025-04-16 17:02:06.540,101471,15558,18712,94087,114126
2025-04-16 17:02:06.541,101482,15541,18687,94185,114207
2025-04-16 17:02:06.547,101435,15512,18669,94191,114192
2025-04-16 17:02:06.560,101389,15501,18664,94166,114180
2025-04-16 17:02:06.568,101363,15506,18673,94192,114164
2025-04-16 17:02:06.580,101351,15510,18683,94216,114179
2025-04-16 17:02:06.584,101351,15510,18683,94216,114179
2025-04-16 17:02:06.588,101356,15527,18714,94309,114255
2025-04-16 17:02:06.602,101335,15536,18721,94353,114257
2025-04-16 17:02:06.607,101341,15555,18729,94410,114311
2025-04-16 17:02:06.619,101317,15564,18735,94487,114383
2025-04-16 17:02:06.629,101283,15580,18747,94547,114475
2025-04-16 17:02:06.639,101254,15594,18744,94640,114568
2025-04-16 17:02:06.647,101213,15609,18756,94696,114654
2025-04-16 17:02:06.666,101184,15619,18766,94770,114732
2025-04-16 17:02:06.668,101179,15637,18778,94832,114795
2025-04-16 17:02:06.680,101167,15655,18790,94887,114867
2025-04-16 17:02:06.687,101174,15678,18809,94935,114913
2025-04-16 17:02:06.700,101202,15699,18827,94983,114969
2025-04-16 17:02:06.707,101234,15728,18858,95025,115024
2025-04-16 17:02:06.729,101270,15764,18889,95076,115111
2025-04-16 17:02:06.732,101305,15787,18920,95163,115212
2025-04-16 17:02:06.739,101340,15819,18946,95238,115311
2025-04-16 17:02:06.752,101376,15835,18959,95318,115392
2025-04-16 17:02:06.759,101393,15846,18972,95357,115423
2025-04-16 17:02:06.772,101424,15862,18979,95367,115466
2025-04-16 17:02:06.792,101425,15880,18995,95400,115507
2025-04-16 17:02:06.793,101478,15902,19011,95454,115568
2025-04-16 17:02:06.800,101514,15923,19031,95495,115638
2025-04-16 17:02:06.811,101582,15943,19048,95558,115698
2025-04-16 17:02:06.819,101645,15967,19069,95594,115770
2025-04-16 17:02:06.832,101751,15990,19095,95666,115845
2025-04-16 17:02:06.839,101842,16018,19112,95692,115920
2025-04-16 17:02:06.854,101950,16033,19134,95724,115953
2025-04-16 17:02:06.860,102044,16040,19152,95726,115968
2025-04-16 17:02:06.872,102146,16055,19164,95710,115971
2025-04-16 17:02:06.880,102220,16056,19169,95657,115923
2025-04-16 17:02:06.891,102278,16046,19176,95572,115826
2025-04-16 17:02:06.900,102355,16040,19182,95509,115761
2025-04-16 17:02:06.917,102403,16041,19195,95462,115686
2025-04-16 17:02:06.919,102443,16036,19203,95395,115607
2025-04-16 17:02:06.932,102463,16021,19201,95250,115473
2025-04-16 17:02:06.939,102444,15994,19173,95039,115211
2025-04-16 17:02:06.952,102259,15955,19101,94729,114849
2025-04-16 17:02:06.959,102218,15924,19061,94367,114452
2025-04-16 17:02:06.980,102248,15911,19061,94174,114232
2025-04-16 17:02:06.981,102198,15908,19083,94113,114124
2025-04-16 17:02:06.991,102163,15905,19103,94123,114107
2025-04-16 17:02:06.999,102129,15896,19124,94148,114092
2025-04-16 17:02:07.012,102105,15858,19146,94100,114005
2025-04-16 17:02:07.019,102101,15802,19161,93916,113774
2025-04-16 17:02:07.042,102115,15749,19139,93619,113431
2025-04-16 17:02:07.044,102154,15681,19112,93297,113042
2025-04-16 17:02:07.052,102132,15627,19077,92989,112682
2025-04-16 17:02:07.064,102081,15602,19043,92774,112438
2025-04-16 17:02:07.071,102058,15601,19024,92743,112393
2025-04-16 17:02:07.084,102045,15611,19005,92913,112538
2025-04-16 17:02:07.091,101973,15618,18982,93105,112727
2025-04-16 17:02:07.106,101486,15637,18953,93317,112923
2025-04-16 17:02:07.112,101640,15648,18902,93508,113130
2025-04-16 17:02:07.123,101905,15671,18859,93588,113178
2025-04-16 17:02:07.132,102286,15715,18827,93692,113268
2025-04-16 17:02:07.143,102357,15748,18846,93851,113427
2025-04-16 17:02:07.152,102408,15778,18866,94044,113613
2025-04-16 17:02:07.174,102474,15824,18898,94201,113799
2025-04-16 17:02:07.176,102594,15886,18939,94402,114021
2025-04-16 17:02:07.184,102682,15942,18976,94639,114306
2025-04-16 17:02:07.191,102753,15979,19011,94880,114587
2025-04-16 17:02:07.204,102765,16017,19025,95051,114799
2025-04-16 17:02:07.212,102756,16039,19042,95228,114995
2025-04-16 17:02:07.239,102702,16053,19037,95409,115184
2025-04-16 17:02:07.240,102620,16048,19019,95559,115368
2025-04-16 17:02:07.243,102527,16030,18993,95707,115509
2025-04-16 17:02:07.252,102436,16004,18962,95797,115587
2025-04-16 17:02:07.264,102368,15985,18935,95851,115612
2025-04-16 17:02:07.271,102316,15956,18919,95849,115577
2025-04-16 17:02:07.284,102320,15942,18913,95804,115531
2025-04-16 17:02:07.303,102344,15941,18925,95752,115433
2025-04-16 17:02:07.304,102459,15938,18942,95655,115356
2025-04-16 17:02:07.311,102589,15941,18960,95496,115165
2025-04-16 17:02:07.324,102731,15931,18987,95271,114947
2025-04-16 17:02:07.336,102890,15914,19014,94939,114611
2025-04-16 17:02:07.343,103084,15912,19072,94536,114217
2025-04-16 17:02:07.366,103336,15921,19157,94225,113915
2025-04-16 17:02:07.367,103623,15802,19235,93873,113516
2025-04-16 17:02:07.375,104128,15536,19285,93008,112582
2025-04-16 17:02:07.387,103230,15217,18934,91797,111162
2025-04-16 17:02:07.388,103230,15217,18934,91797,111162
2025-04-16 17:02:07.395,102279,14961,18627,89983,109187
2025-04-16 17:02:07.402,102435,14947,18636,89758,109056
2025-04-16 17:02:07.415,102693,14972,18720,89524,108870
2025-04-16 17:02:07.430,102876,15012,18822,89209,108629
2025-04-16 17:02:07.436,102986,15076,18916,88923,108408
2025-04-16 17:02:07.443,102977,15157,18982,88966,108543
2025-04-16 17:02:07.455,102864,15204,18979,89171,108828
2025-04-16 17:02:07.464,102717,15243,18974,89392,109084
2025-04-16 17:02:07.475,102666,15290,18981,89655,109369
2025-04-16 17:02:07.493,102688,15319,18938,89834,109581
2025-04-16 17:02:07.495,102671,15326,18876,89909,109653
2025-04-16 17:02:07.503,102475,15320,18829,89913,109668
2025-04-16 17:02:07.515,102160,15335,18814,89770,109440
2025-04-16 17:02:07.524,101919,15407,18825,90041,109828
2025-04-16 17:02:07.535,101473,15500,18837,90574,110413
2025-04-16 17:02:07.556,100789,15596,18800,91231,111135
2025-04-16 17:02:07.557,101431,15758,18771,91895,111933
2025-04-16 17:02:07.563,101991,15877,18823,92559,112635
2025-04-16 17:02:07.575,102799,16048,18943,93217,113488
2025-04-16 17:02:07.587,102915,16086,18969,94060,114491
2025-04-16 17:02:07.596,103032,16118,18997,94239,114710
2025-04-16 17:02:07.619,103125,16144,19005,94388,114876
2025-04-16 17:02:07.620,103178,16153,19008,94544,115059
2025-04-16 17:02:07.628,103176,16130,18978,94706,115203
2025-04-16 17:02:07.635,103112,16111,18953,94743,115211
2025-04-16 17:02:07.648,103569,16126,19000,94862,115345
2025-04-16 17:02:07.655,103568,16103,18983,95286,115775
2025-04-16 17:02:07.667,103563,16089,18984,95288,115741
2025-04-16 17:02:07.681,103716,16141,19032,95264,115707
2025-04-16 17:02:07.687,103739,16187,19057,95447,115832
2025-04-16 17:02:07.695,103874,16282,19099,95550,115957
2025-04-16 17:02:07.708,103901,16231,19060,95695,116124
2025-04-16 17:02:07.715,104010,16143,19038,95234,115571
2025-04-16 17:02:07.727,103966,16051,18960,94755,114993
2025-04-16 17:02:07.744,103090,15888,18930,93876,113974
2025-04-16 17:02:07.748,102106,15614,18854,92993,113065
2025-04-16 17:02:07.755,101844,15271,18613,91705,111745
2025-04-16 17:02:07.767,101857,15040,18492,90151,110165
2025-04-16 17:02:07.775,102079,14970,18494,89219,109189
2025-04-16 17:02:07.788,102002,14872,18392,89030,108941
2025-04-16 17:02:07.807,102087,14851,18392,88371,108195
2025-04-16 17:02:07.808,102026,14834,18341,88456,108253
2025-04-16 17:02:07.820,102062,15043,18483,88358,108207
2025-04-16 17:02:07.827,102071,15231,18578,89521,109518
2025-04-16 17:02:07.839,102229,15326,18639,90348,110358
2025-04-16 17:02:07.847,102480,15361,18678,90682,110715
2025-04-16 17:02:07.869,102753,15372,18707,90652,110698
2025-04-16 17:02:07.870,102909,15359,18737,90542,110593
2025-04-16 17:02:07.879,103035,15340,18779,90249,110296
2025-04-16 17:02:07.887,103477,15347,18802,90123,110171
2025-04-16 17:02:07.899,103779,15367,18789,90206,110263
2025-04-16 17:02:07.907,103887,15386,18758,90373,110401
2025-04-16 17:02:07.932,103932,15402,18750,90532,110577
2025-04-16 17:02:07.933,103927,15429,18724,90691,110742
2025-04-16 17:02:07.940,103674,15471,18705,90959,111030
2025-04-16 17:02:07.948,103351,15522,18685,91421,111570
2025-04-16 17:02:07.959,103092,15574,18665,92090,112281
2025-04-16 17:02:07.967,103106,15637,18684,92664,112879
2025-04-16 17:02:07.979,103002,15647,18675,93319,113583
2025-04-16 17:02:07.995,102926,15650,18665,93549,113806
2025-04-16 17:02:07.999,102923,15661,18682,93660,113921
2025-04-16 17:02:08.008,102938,15669,18687,93737,114007
2025-04-16 17:02:08.019,102964,15688,18727,93808,114071
2025-04-16 17:02:08.027,103054,15720,18766,93856,114108
2025-04-16 17:02:08.039,103167,15743,18803,93861,114096
2025-04-16 17:02:08.057,103307,15768,18849,93765,113984
2025-04-16 17:02:08.059,103487,15765,18873,93683,113899
2025-04-16 17:02:08.072,103712,15733,18888,93398,113606
2025-04-16 17:02:08.079,103878,15678,18886,92901,113063
2025-04-16 17:02:08.091,103902,15598,18839,92356,112502
2025-04-16 17:02:08.099,102902,15303,18648,91627,111624
2025-04-16 17:02:08.120,102831,15119,18690,90073,109760
2025-04-16 17:02:08.121,102697,14908,18557,89272,108866
2025-04-16 17:02:08.130,102727,14738,18373,88370,107897
2025-04-16 17:02:08.139,103306,14757,18268,88015,107642
2025-04-16 17:02:08.151,103088,14715,18230,88489,108180
2025-04-16 17:02:08.159,103156,14671,18230,88221,107845
2025-04-16 17:02:08.183,103364,14631,18204,87646,107239
2025-04-16 17:02:08.184,103565,14626,18198,87040,106632
2025-04-16 17:02:08.191,103650,14701,18230,86706,106353
2025-04-16 17:02:08.199,103603,14814,18296,86852,106552
2025-04-16 17:02:08.211,103500,14892,18320,87255,107059
2025-04-16 17:02:08.219,103409,14949,18342,87583,107419
2025-04-16 17:02:08.231,103401,15007,18363,87834,107699
2025-04-16 17:02:08.245,103414,15071,18395,88046,107951
2025-04-16 17:02:08.250,103412,15133,18425,88319,108266
2025-04-16 17:02:08.260,103352,15207,18462,88677,108688
2025-04-16 17:02:08.271,103257,15292,18489,89189,109251
2025-04-16 17:02:08.284,103032,15378,18527,89778,109859
2025-04-16 17:02:08.291,102811,15467,18566,90398,110514
2025-04-16 17:02:08.308,102374,15569,18589,91052,111202
2025-04-16 17:02:08.312,102225,15623,18584,91541,111741
2025-04-16 17:02:08.323,102574,15682,18564,91747,111921
2025-04-16 17:02:08.331,102978,15736,18545,91933,112117
2025-04-16 17:02:08.343,103054,15774,18564,92091,112296
2025-04-16 17:02:08.350,103106,15799,18575,92268,112477
2025-04-16 17:02:08.371,103106,15821,18582,92411,112632
2025-04-16 17:02:08.372,103073,15828,18571,92584,112801
2025-04-16 17:02:08.383,102961,15837,18556,92683,112894
2025-04-16 17:02:08.395,102874,15869,18573,92875,113076
2025-04-16 17:02:08.397,102874,15869,18573,92875,113076
2025-04-16 17:02:08.403,102952,15906,18619,93439,113636
2025-04-16 17:02:08.411,103036,16019,18708,93479,113695
2025-04-16 17:02:08.435,103314,16063,18764,93956,114105
2025-04-16 17:02:08.436,103418,16020,18759,93913,114065
2025-04-16 17:02:08.443,103565,15970,18774,93474,113529
2025-04-16 17:02:08.450,103676,15934,18778,93036,113051
2025-04-16 17:02:08.463,103447,15871,18788,92584,112584
2025-04-16 17:02:08.470,102385,15733,18845,92163,112154
2025-04-16 17:02:08.483,102167,15571,18723,91772,111738
2025-04-16 17:02:08.498,101747,15340,18532,91084,111012
2025-04-16 17:02:08.504,101448,15163,18370,90275,110119
2025-04-16 17:02:08.511,101428,15095,18357,89810,109575
2025-04-16 17:02:08.523,101594,15084,18376,89540,109244
2025-04-16 17:02:08.535,101792,15082,18387,89262,109025
2025-04-16 17:02:08.543,101963,15141,18457,89129,108825
2025-04-16 17:02:08.560,102037,15205,18499,89501,109158
2025-04-16 17:02:08.563,102143,15365,18594,89906,109679
2025-04-16 17:02:08.575,102350,15475,18671,90660,110394
2025-04-16 17:02:08.583,102723,15563,18754,91143,110926
2025-04-16 17:02:08.595,103290,15600,18768,91293,111064
2025-04-16 17:02:08.603,103771,15662,18806,91317,111112
2025-04-16 17:02:08.622,104391,15768,18841,91702,111510
2025-04-16 17:02:08.623,104869,15820,18902,92152,111993
2025-04-16 17:02:08.635,104838,15841,18903,92481,112364
2025-04-16 17:02:08.643,104684,15828,18867,92924,112812
2025-04-16 17:02:08.654,104491,15805,18822,93295,113166
2025-04-16 17:02:08.662,104263,15800,18789,93684,113540
2025-04-16 17:02:08.685,104072,15791,18753,94124,113971
2025-04-16 17:02:08.686,103898,15779,18723,94515,114334
2025-04-16 17:02:08.695,103765,15759,18700,94781,114613
2025-04-16 17:02:08.702,103656,15735,18668,94875,114723
2025-04-16 17:02:08.714,103549,15708,18636,94845,114708
2025-04-16 17:02:08.723,103460,15686,18613,94766,114627
2025-04-16 17:02:08.734,103372,15668,18596,94676,114565
2025-04-16 17:02:08.748,103295,15660,18584,94625,114526
2025-04-16 17:02:08.755,103282,15686,18605,94591,114495
2025-04-16 17:02:08.763,103352,15734,18666,94636,114544
2025-04-16 17:02:08.775,103500,15767,18736,94640,114589
2025-04-16 17:02:08.786,103693,15778,18804,94516,114446
2025-04-16 17:02:08.795,103905,15739,18824,94145,114071
2025-04-16 17:02:08.811,104013,15650,18790,93441,113309
2025-04-16 17:02:08.815,103143,15328,18564,92501,112271
2025-04-16 17:02:08.826,102702,15126,18597,90584,110041
2025-04-16 17:02:08.835,102665,14959,18508,89711,109071
2025-04-16 17:02:08.847,102588,14764,18389,88649,107964
2025-04-16 17:02:08.855,103890,14874,18342,87791,107100
2025-04-16 17:02:08.874,103787,14912,18256,88927,108579
2025-04-16 17:02:08.876,103831,14924,18277,89126,108607
2025-04-16 17:02:08.887,104020,14994,18356,89085,108580
2025-04-16 17:02:08.895,104317,15065,18434,89031,108562
2025-04-16 17:02:08.907,104514,15167,18499,89011,108593
2025-04-16 17:02:08.915,104570,15285,18570,89204,108844
2025-04-16 17:02:08.938,104523,15421,18646,89582,109287
2025-04-16 17:02:08.939,104435,15528,18701,90106,109879
2025-04-16 17:02:08.947,104387,15595,18750,90531,110336
2025-04-16 17:02:08.955,104101,15660,18838,90697,110526
2025-04-16 17:02:08.967,104120,15728,18870,90868,110784
2025-04-16 17:02:08.975,103889,15803,18904,91155,111136
2025-04-16 17:02:08.986,103153,15866,18919,91449,111436
2025-04-16 17:02:09.001,103107,15946,18943,91842,111863
2025-04-16 17:02:09.007,103205,16024,18947,92510,112527
2025-04-16 17:02:09.019,103272,16092,18935,93159,113225
2025-04-16 17:02:09.026,103529,16138,18888,93740,113774
2025-04-16 17:02:09.039,103908,16181,18863,94102,114113
2025-04-16 17:02:09.046,104221,16211,18893,94437,114458
2025-04-16 17:02:09.063,104310,16224,18902,94743,114780
2025-04-16 17:02:09.067,104357,16230,18894,94891,114923
2025-04-16 17:02:09.078,104337,16198,18867,94949,114982
2025-04-16 17:02:09.087,104326,16192,18854,94921,114940
2025-04-16 17:02:09.098,104292,16212,18856,95022,115054
2025-04-16 17:02:09.107,104105,16165,18810,95226,115256
2025-04-16 17:02:09.127,104200,16149,18835,95301,115304
2025-04-16 17:02:09.129,104093,16195,18857,95555,115517
2025-04-16 17:02:09.140,104289,16303,18942,95799,115802
2025-04-16 17:02:09.146,104471,16269,18961,96041,116014
2025-04-16 17:02:09.159,104679,16232,18983,95637,115536
2025-04-16 17:02:09.167,104780,16172,18966,95170,115055
2025-04-16 17:02:09.192,104707,16110,18929,94490,114520
2025-04-16 17:02:09.193,104760,16094,18927,94242,114077
2025-04-16 17:02:09.199,104455,16036,18880,93903,113743
2025-04-16 17:02:09.203,104455,16036,18880,93903,113743
2025-04-16 17:02:09.207,103068,15837,18952,93411,113252
2025-04-16 17:02:09.219,102938,15663,18853,92399,112148
2025-04-16 17:02:09.226,102815,15402,18711,91505,111183
2025-04-16 17:02:09.239,102999,15278,18688,90470,110028
2025-04-16 17:02:09.255,103140,15248,18696,89941,109427
2025-04-16 17:02:09.259,103356,15392,18780,90064,109555
2025-04-16 17:02:09.271,103284,15409,18743,90572,110052
2025-04-16 17:02:09.278,103478,15524,18828,90600,110061
2025-04-16 17:02:09.291,103551,15601,18874,91196,110731
2025-04-16 17:02:09.299,103789,15746,18964,91571,111174
2025-04-16 17:02:09.318,104116,15751,19006,91908,111508
2025-04-16 17:02:09.319,104391,15729,19007,91772,111362
2025-04-16 17:02:09.331,104463,15713,18975,91611,111227
2025-04-16 17:02:09.339,104331,15663,18903,91575,111204
2025-04-16 17:02:09.350,104119,15596,18826,91491,111137
2025-04-16 17:02:09.359,103909,15542,18770,91357,111032
2025-04-16 17:02:09.382,103737,15515,18734,91251,110927
2025-04-16 17:02:09.383,103564,15505,18714,91245,110951
2025-04-16 17:02:09.391,103400,15508,18687,91323,111041
2025-04-16 17:02:09.399,103212,15525,18668,91478,111232
2025-04-16 17:02:09.411,102983,15559,18657,91708,111520
2025-04-16 17:02:09.419,102776,15604,18651,92088,111918
2025-04-16 17:02:09.431,103195,15662,18555,92507,112369
2025-04-16 17:02:09.446,104117,15746,18562,92792,112586
2025-04-16 17:02:09.451,103975,15770,18565,93359,113227
2025-04-16 17:02:09.459,103892,15785,18577,93650,113476
2025-04-16 17:02:09.470,103895,15811,18608,93851,113666
2025-04-16 17:02:09.479,103981,15851,18657,93966,113766
2025-04-16 17:02:09.490,104186,15884,18726,94000,113783
2025-04-16 17:02:09.510,104531,15904,18806,93757,113566
2025-04-16 17:02:09.512,104944,15894,18865,93322,113100
2025-04-16 17:02:09.522,105381,15863,18915,92769,112520
2025-04-16 17:02:09.530,105735,15767,18889,92072,111788
2025-04-16 17:02:09.542,105245,15562,18869,91067,110704
2025-04-16 17:02:09.551,105530,15285,18775,89863,109381
2025-04-16 17:02:09.576,105573,14928,18507,88596,108029
2025-04-16 17:02:09.578,105182,14565,18140,87106,106467
2025-04-16 17:02:09.583,104322,14317,17829,85775,104960
2025-04-16 17:02:09.591,103345,14388,17736,85065,104136
2025-04-16 17:02:09.603,102558,14440,17803,85610,104801
2025-04-16 17:02:09.610,102926,14495,17923,85483,104615
2025-04-16 17:02:09.623,103542,14613,18043,85344,104478
2025-04-16 17:02:09.644,103967,14771,18147,85415,104594
2025-04-16 17:02:09.646,104301,14950,18264,85715,104977
2025-04-16 17:02:09.651,104564,15101,18377,86176,105534
2025-04-16 17:02:09.662,104719,15227,18480,86593,106018
2025-04-16 17:02:09.671,104679,15366,18624,86996,106499
2025-04-16 17:02:09.683,104686,15496,18708,87469,107099
2025-04-16 17:02:09.691,104535,15622,18776,88083,107795
2025-04-16 17:02:09.711,104399,15713,18814,88723,108504
2025-04-16 17:02:09.713,104100,15770,18825,89378,109222
2025-04-16 17:02:09.722,103818,15815,18822,89860,109756
2025-04-16 17:02:09.735,103626,15842,18821,90331,110242
2025-04-16 17:02:09.743,103541,15862,18833,90683,110590
2025-04-16 17:02:09.754,103542,15895,18855,90984,110896
2025-04-16 17:02:09.777,103345,15922,18874,91193,111103
2025-04-16 17:02:09.778,103430,15974,18929,91420,111359
2025-04-16 17:02:09.782,103469,16045,18973,91706,111681
2025-04-16 17:02:09.794,103531,16109,19003,92190,112190
2025-04-16 17:02:09.802,103507,16114,18988,92621,112655
2025-04-16 17:02:09.814,103465,16153,19005,92852,112866
2025-04-16 17:02:09.822,103927,16167,19018,93233,113264
2025-04-16 17:02:09.842,104302,16111,18980,93526,113543
2025-04-16 17:02:09.844,104503,16231,19028,93411,113511
2025-04-16 17:02:09.854,105255,16370,19134,94439,114482
2025-04-16 17:02:09.862,105416,16397,19180,94994,115030
2025-04-16 17:02:09.873,105580,16353,19181,95106,115060
2025-04-16 17:02:09.882,105403,16255,19075,95044,114965
2025-04-16 17:02:09.913,105265,16345,19086,94764,114555
2025-04-16 17:02:09.915,105286,16316,19097,94830,114681
2025-04-16 17:02:09.917,105397,16314,19121,94736,114528
2025-04-16 17:02:09.922,105242,16192,19032,94333,114091
2025-04-16 17:02:09.934,104265,16030,19033,93308,112902
2025-04-16 17:02:09.943,103487,15627,18833,92063,111688
2025-04-16 17:02:09.954,102844,15145,18453,89929,109366
2025-04-16 17:02:09.976,102557,14777,18204,87946,107323
2025-04-16 17:02:09.977,102721,14653,18165,86645,105936
2025-04-16 17:02:09.987,102872,14597,18149,86135,105316
2025-04-16 17:02:09.994,102735,14734,18179,85968,105168
2025-04-16 17:02:10.007,102600,14879,18291,86690,106169
2025-04-16 17:02:10.010,102600,14879,18291,86690,106169
2025-04-16 17:02:10.014,102824,15341,18604,88662,108119
2025-04-16 17:02:10.040,103103,15375,18627,89421,108891
2025-04-16 17:02:10.042,103670,15476,18754,89369,108796
2025-04-16 17:02:10.047,104099,15545,18816,89658,109110
2025-04-16 17:02:10.055,104359,15639,18881,89833,109308
2025-04-16 17:02:10.066,104463,15709,18928,90265,109774
2025-04-16 17:02:10.074,104701,15762,18976,90727,110290
2025-04-16 17:02:10.086,104990,15815,18972,91084,110632
2025-04-16 17:02:10.104,105424,15874,18940,91391,110944
2025-04-16 17:02:10.106,105560,15910,18972,91672,111244
2025-04-16 17:02:10.114,105429,15938,18966,92066,111682
2025-04-16 17:02:10.126,105280,15959,18952,92495,112135
2025-04-16 17:02:10.134,105064,15967,18920,92946,112610
2025-04-16 17:02:10.146,104790,15964,18899,93307,112989
2025-04-16 17:02:10.166,104553,15928,18828,93650,113341
2025-04-16 17:02:10.168,104306,15946,18815,93943,113592
2025-04-16 17:02:10.174,104219,15951,18834,94141,113801
2025-04-16 17:02:10.185,104185,15965,18858,94325,113967
2025-04-16 17:02:10.194,104229,15985,18898,94417,114027
2025-04-16 17:02:10.206,104335,16013,18953,94418,114051
2025-04-16 17:02:10.229,104478,16049,19023,94412,114043
2025-04-16 17:02:10.230,104681,16089,19095,94325,113964
2025-04-16 17:02:10.238,104957,16095,19156,94140,113788
2025-04-16 17:02:10.246,105315,16058,19207,93712,113321
2025-04-16 17:02:10.258,105632,15942,19199,92927,112474
2025-04-16 17:02:10.266,105438,15591,19040,91670,111048
2025-04-16 17:02:10.291,105372,15214,18954,89463,108365
2025-04-16 17:02:10.293,105119,14950,18761,87777,106533
2025-04-16 17:02:10.298,104497,14666,18466,86594,105280
2025-04-16 17:02:10.307,104077,14556,18198,85665,104338
2025-04-16 17:02:10.319,103538,14528,18089,85783,104551
2025-04-16 17:02:10.326,103384,14516,18077,85779,104539
2025-04-16 17:02:10.338,103622,14507,18067,85405,104180
2025-04-16 17:02:10.354,103923,14517,18059,84860,103647
2025-04-16 17:02:10.358,104110,14594,18089,84509,103364
2025-04-16 17:02:10.367,104095,14731,18177,84585,103536
2025-04-16 17:02:10.377,104049,14856,18266,85019,104055
2025-04-16 17:02:10.386,103945,14987,18342,85587,104729
2025-04-16 17:02:10.398,103904,15048,18386,86102,105263
2025-04-16 17:02:10.418,103865,15168,18474,86465,105644
2025-04-16 17:02:10.419,103717,15285,18543,87030,106299
2025-04-16 17:02:10.427,103539,15376,18594,87659,106985
2025-04-16 17:02:10.437,103347,15480,18646,88284,107618
2025-04-16 17:02:10.446,102775,15654,18706,89035,108454
2025-04-16 17:02:10.458,102757,15859,18695,90082,109676
2025-04-16 17:02:10.480,103520,15985,18694,91098,110764
2025-04-16 17:02:10.481,103557,16041,18707,91752,111429
2025-04-16 17:02:10.490,103559,16059,18700,92194,111877
2025-04-16 17:02:10.497,103527,16053,18673,92517,112209
2025-04-16 17:02:10.509,103322,16025,18590,92714,112403
2025-04-16 17:02:10.518,103198,16044,18573,92936,112663
2025-04-16 17:02:10.542,102908,16030,18518,93465,113214
2025-04-16 17:02:10.543,102616,15990,18458,93998,113739
2025-04-16 17:02:10.550,102538,15963,18466,94433,114124
2025-04-16 17:02:10.558,102363,16004,18484,94817,114500
2025-04-16 17:02:10.570,102364,16038,18539,95415,115080
2025-04-16 17:02:10.577,102465,16046,18580,95663,115330
2025-04-16 17:02:10.590,102134,16109,18628,95729,115375
2025-04-16 17:02:10.606,102490,16104,18673,95804,115419
2025-04-16 17:02:10.609,102625,16062,18689,95325,115050
2025-04-16 17:02:10.618,102773,16035,18711,94860,114485
2025-04-16 17:02:10.630,102698,15949,18676,94165,113869
2025-04-16 17:02:10.638,101849,15843,18748,93413,112988
2025-04-16 17:02:10.650,101303,15694,18758,92785,112411
2025-04-16 17:02:10.671,101065,15388,18546,91717,111285
2025-04-16 17:02:10.672,100981,15158,18378,90020,109505
2025-04-16 17:02:10.678,101076,14967,18248,88718,108127
2025-04-16 17:02:10.689,101499,14821,18195,87546,106930
2025-04-16 17:02:10.698,102018,14777,18200,86628,105909
2025-04-16 17:02:10.710,102217,14877,18255,86271,105557
2025-04-16 17:02:10.735,102269,14972,18275,86519,105912
2025-04-16 17:02:10.736,102296,15049,18368,86915,106258
2025-04-16 17:02:10.742,102462,15213,18492,87550,106941
2025-04-16 17:02:10.750,102843,15346,18604,88227,107676
