0 SpO2 Coeff  0 0 0 0  FFD7FBDD  0AB61FE
Ver: 0 33 12 0
rd algo size: 1 33 
rd algo size: 1 33 
rd algo size: 1 33 
rd algo size: 1 33 
sens+algo 
1.2 Status: 0
1.5 Status: 0
1.6 Status: 0
1.7 Status: 0
1.8 Status: 0
map leds to slots 0
map HR to slots/PDs 0
map SpO2 to slots/PDs 0
1.14 status: 0
1.31 part id afe 0 25
1.32 who accel 0 1b
ppg1,ppg2,ppg3,ppg4,x,y,z,hr,hr_conf,spo2,spo2_conf,spo2_lo,spo2_unrel,scd,
140011,25763,107146,107142,-31,-250,976,600,0,0,0,0,0,2,
236051,25757,237460,235261,-32,-249,975,600,0,0,0,0,0,2,
196032,21098,284338,275996,-16,-251,978,600,0,0,0,0,0,2,
174451,18506,284570,276318,-17,-250,977,600,0,0,0,0,0,2,
169128,17381,284640,276513,-15,-252,975,600,0,0,0,0,0,2,
165790,16974,284723,276679,-14,-252,976,600,0,0,0,0,0,2,
165727,16973,284640,276681,-24,-252,977,600,0,0,0,0,0,2,
166139,17016,285111,277106,-23,-252,977,600,0,0,0,0,0,2,
166488,17031,285494,277433,-25,-251,974,600,0,0,0,0,0,2,
166439,17027,285455,277451,-23,-250,975,600,0,0,0,0,0,2,
166778,17044,285787,277793,-18,-253,979,700,0,0,0,0,0,2,
167230,17058,286174,278147,-20,-254,978,700,0,0,0,0,0,2,
167776,17058,369098,352655,-31,-256,979,700,0,0,0,0,0,2,
168038,17053,433152,439354,-38,-256,977,700,0,0,0,0,0,2,
168295,17052,433486,441362,0,-251,978,700,0,0,0,0,0,2,
168517,17054,433693,441574,-17,-251,977,700,0,0,0,0,0,2,
168441,17024,433174,440972,-29,-251,975,700,0,0,0,0,0,2,
168051,16891,432022,439358,-24,-251,975,700,0,0,0,0,0,2,
167229,16766,431194,438079,-10,-253,977,700,0,0,0,0,0,2,
166898,16719,431186,437923,-18,-250,974,700,0,0,0,0,0,2,
167013,16716,431612,438267,-18,-250,974,700,0,0,0,0,0,2,
167064,16720,431830,438456,-18,-250,974,700,0,0,0,0,0,2,
167172,16729,432121,438755,-18,-250,974,700,0,0,0,0,0,2,
167355,16747,432409,439145,-18,-250,974,700,0,0,0,0,0,2,
167504,16763,432622,439484,-18,-250,974,700,0,0,0,0,0,2,
167631,16776,432756,439683,-18,-250,974,700,0,0,0,0,0,2,
167724,16769,432878,439890,-31,-251,975,700,0,0,0,0,0,2,
167901,16771,433147,440230,-29,-251,976,700,0,0,0,0,0,2,
168084,16774,433370,440514,-23,-251,975,700,0,0,0,0,0,2,
168116,16778,433405,440697,-27,-252,976,700,0,0,0,0,0,2,
168264,16788,433584,441009,-22,-251,975,700,0,0,0,0,0,2,
168379,16801,433668,441198,-23,-250,978,700,0,0,0,0,0,2,
168482,16819,433677,441386,-17,-250,977,700,0,0,0,0,0,2,
168582,16839,433687,441498,-19,-251,977,700,0,0,0,0,0,2,
168692,16855,433715,441667,-27,-251,976,700,0,0,0,0,0,2,
168886,16876,433935,441964,-22,-251,977,700,0,0,0,0,0,2,
169166,16896,434165,442243,-31,-249,979,700,0,0,0,0,0,2,
169144,16852,433708,441651,-33,-250,977,700,0,0,0,0,0,2,
168411,16719,432611,440062,-32,-250,978,700,0,0,0,0,0,2,
167671,16628,432043,439121,-29,-250,977,700,0,0,0,0,0,2,
167395,16601,431918,438944,-22,-250,978,700,0,0,0,0,0,2,
167380,16604,432010,439046,-20,-249,976,700,0,0,0,0,0,2,
167358,16609,432010,439116,-21,-250,977,700,0,0,0,0,0,2,
167441,16624,432189,439357,-18,-249,976,700,0,0,0,0,0,2,
167717,16647,432589,439864,-14,-250,980,700,0,0,0,0,0,2,
167951,16662,432828,440176,-19,-249,977,700,0,0,0,0,0,2,
168020,16657,432844,440258,-19,-248,979,700,0,0,0,0,0,2,
168024,16653,432814,440339,-20,-249,976,700,0,0,0,0,0,2,
168147,16662,432951,440569,-20,-249,976,700,0,0,0,0,0,2,
168224,16669,432966,440734,-20,-249,979,700,0,0,0,0,0,2,
168317,16686,433039,440932,-26,-249,976,700,0,0,0,0,0,2,
168524,16696,433274,441277,-19,-249,978,700,0,0,0,0,0,2,
168721,16703,433427,441534,-17,-248,978,700,0,0,0,0,0,2,
168805,16714,433414,441691,-16,-249,978,700,0,0,0,0,0,2,
168964,16725,433571,441929,-21,-249,976,700,0,0,0,0,0,2,
169129,16728,433674,442127,-18,-249,979,700,0,0,0,0,0,2,
169254,16741,433762,442289,-18,-248,979,700,0,0,0,0,0,2,
169366,16747,433753,442382,-17,-248,976,700,0,0,0,0,0,2,
169128,16687,433046,441496,-19,-248,978,700,0,0,0,0,0,2,
168229,16555,431898,439869,-21,-249,977,700,0,0,0,0,0,2,
167509,16486,431329,439048,-15,-249,977,700,0,0,0,0,0,2,
167335,16484,431259,438982,-19,-248,979,700,0,0,0,0,0,2,
167240,16491,431162,438952,-18,-248,979,700,0,0,0,0,0,2,
167201,16502,431129,439004,-18,-248,979,700,0,0,0,0,0,2,
167292,16525,431181,439204,-17,-249,978,700,0,0,0,0,0,2,
167489,16548,431337,439489,-20,-249,978,700,0,0,0,0,0,2,
167573,16555,431346,439626,-19,-248,977,700,0,0,0,0,0,2,
167655,16552,431354,439736,-17,-248,978,700,0,0,0,0,0,2,
167696,16549,431307,439814,-16,-248,978,700,0,0,0,0,0,2,
167815,16562,431375,440019,-18,-248,978,700,0,0,0,0,0,2,
167988,16572,431535,440266,-17,-249,977,700,0,0,0,0,0,2,
168128,16585,431586,440479,-18,-247,978,700,0,0,0,0,0,2,
168246,16594,431609,440639,-17,-248,978,700,0,0,0,0,0,2,
168376,16607,431641,440859,-19,-248,978,700,0,0,0,0,0,2,
168553,16618,431746,441067,-18,-247,977,700,0,0,0,0,0,2,
168667,16621,431770,441232,-20,-248,978,700,0,0,0,0,0,2,
168815,16631,431846,441415,-19,-248,977,700,0,0,0,0,0,2,
169030,16645,432007,441659,-19,-248,977,700,0,0,0,0,0,2,
168945,16609,431563,441147,-18,-248,977,700,0,0,0,0,0,2,
168134,16495,430362,439502,-17,-249,977,700,0,0,0,0,0,2,
167354,16395,429747,438528,-20,-247,978,700,0,0,0,0,0,2,
167045,16380,429531,438276,-20,-248,978,700,0,0,0,0,0,2,
166966,16390,429442,438261,-22,-248,978,700,0,0,0,0,0,3,
167009,16396,429520,438428,-19,-248,979,700,0,0,0,0,0,3,
167113,16416,429619,438646,-19,-248,977,700,0,0,0,0,0,3,
167284,16435,429796,438975,-19,-247,978,700,0,0,0,0,0,3,
167441,16441,429891,439184,-21,-248,978,700,0,0,0,0,0,3,
167418,16437,429763,439146,-19,-247,978,700,0,0,0,0,0,3,
167461,16439,429763,439236,-21,-248,980,700,0,0,0,0,0,3,
167528,16446,429785,439432,-20,-247,978,690,0,0,0,0,0,3,
167670,16462,429926,439699,-22,-247,978,690,0,0,0,0,0,3,
167830,16477,430045,439944,-21,-249,980,690,0,0,0,0,0,3,
167993,16491,430168,440199,-21,-248,979,690,0,0,0,0,0,3,
168186,16504,430326,440453,-19,-248,979,690,0,0,0,0,0,3,
168334,16509,430383,440647,-18,-248,979,690,0,0,0,0,0,3,
168485,16527,430490,440858,-22,-249,979,690,0,0,0,0,0,3,
168662,16533,430597,441068,-20,-247,977,690,0,0,0,0,0,3,
168773,16545,430626,441209,-18,-247,979,690,0,0,0,0,0,3,
168722,16527,430290,440864,-19,-248,978,690,0,0,0,0,0,3,
168072,16424,429262,439390,-17,-247,979,690,0,0,0,0,0,3,
167257,16305,428626,438329,-17,-248,978,690,0,0,0,0,0,3,
166877,16277,428329,437953,-19,-248,979,690,0,0,0,0,0,3,
166710,16288,428239,437913,-20,-248,979,690,0,0,0,0,0,3,
166698,16292,428261,437973,-20,-249,978,690,0,0,0,0,0,3,
166701,16308,428274,438077,-20,-248,979,690,0,0,0,0,0,3,
166767,16336,428317,438308,-21,-248,977,690,0,0,0,0,0,3,
166877,16352,428345,438497,-20,-248,979,690,0,0,0,0,0,3,
166888,16359,428288,438518,-18,-248,977,690,0,0,0,0,0,3,
166927,16364,428285,438655,-20,-247,978,690,0,0,0,0,0,3,
167051,16374,428406,438847,-20,-247,978,690,0,0,0,0,0,3,
167186,16390,428559,439152,-20,-247,978,690,0,0,0,0,0,3,
167359,16405,428678,439415,-20,-247,977,690,0,0,0,0,0,3,
167499,16417,428784,439637,-19,-248,976,690,0,0,0,0,0,3,
167656,16432,428913,439878,-19,-247,978,690,0,0,0,0,0,3,
167813,16449,428999,440092,-21,-248,979,690,0,0,0,0,0,3,
167934,16458,429046,440262,-20,-248,978,690,100,0,0,0,0,3,
168067,16471,429111,440455,-17,-247,977,690,100,0,0,0,0,3,
168200,16488,429171,440628,-17,-247,979,690,100,0,0,0,0,3,
168281,16493,429110,440642,-18,-249,977,690,100,0,0,0,0,3,
167907,16418,428312,439581,-20,-248,979,690,100,0,0,0,0,3,
166907,16277,427280,438077,-18,-247,979,690,100,0,0,0,0,3,
166280,16221,426783,437446,-19,-248,979,690,100,0,0,0,0,3,
166048,16218,426646,437312,-20,-247,981,690,100,0,0,0,0,3,
165926,16207,426550,437278,-18,-247,979,690,100,0,0,0,0,3,
165782,16207,426422,437228,-19,-247,978,690,100,0,0,0,0,3,
165830,16230,426487,437473,-20,-248,978,690,100,0,0,0,0,3,
165977,16256,426638,437768,-19,-247,979,690,100,0,0,0,0,3,
165998,16259,426582,437851,-19,-247,980,690,100,0,0,0,0,3,
166049,16265,426609,437960,-20,-247,979,690,100,0,0,0,0,3,
166172,16277,426732,438168,-19,-248,979,690,100,0,0,0,0,3,
166286,16291,426852,438428,-19,-248,979,690,100,0,0,0,0,3,
166373,16305,426906,438632,-22,-248,978,690,100,0,0,0,0,3,
166468,16318,426957,438830,-21,-248,978,690,100,0,0,0,0,3,
166612,16333,427092,439058,-18,-248,979,690,100,0,0,0,0,3,
166688,16346,427100,439222,-20,-248,979,690,100,0,0,0,0,3,
166753,16356,427110,439369,-23,-248,978,690,100,0,0,0,0,3,
166864,16373,427138,439563,-17,-247,980,690,100,0,0,0,0,3,
166940,16385,427149,439697,-19,-247,978,690,100,0,0,0,0,3,
167022,16399,427192,439885,-21,-248,979,690,100,0,0,0,0,3,
166996,16396,426900,439611,-21,-248,978,680,100,0,0,0,0,3,
166307,16286,425826,438130,-20,-248,979,680,100,0,0,0,0,3,
165142,16151,424662,436613,-20,-247,979,680,100,0,0,0,0,3,
164534,16122,424093,436022,-20,-248,980,680,100,0,0,0,0,3,
164337,16123,423903,435939,-20,-248,977,680,100,0,0,0,0,3,
164197,16126,423722,435890,-24,-248,978,680,100,0,0,0,0,3,
164223,16141,423809,436130,-22,-247,977,680,100,0,0,0,0,3,
164304,16169,423897,436449,-23,-249,977,680,100,0,0,0,0,3,
164298,16180,423888,436611,-23,-248,979,680,100,0,0,0,0,3,
164300,16180,423888,436738,-22,-249,978,680,100,0,0,0,0,3,
164302,16177,423926,436847,-24,-249,978,680,100,0,0,0,0,3,
164355,16189,424017,437065,-29,-248,978,680,100,0,0,0,0,3,
164458,16200,424117,437359,-23,-250,978,680,100,0,0,0,0,3,
164631,16212,424342,437692,-22,-249,978,680,100,0,0,0,0,3,
164755,16223,424440,437943,-21,-249,978,680,100,0,0,0,0,3,
164892,16237,424574,438202,-23,-250,977,680,100,0,0,0,0,3,
165052,16246,424663,438417,-25,-250,978,680,100,0,0,0,0,3,
165180,16262,424771,438621,-22,-249,977,680,100,0,0,0,0,3,
165333,16277,424884,438850,-23,-250,977,680,100,0,0,0,0,3,
165471,16286,424957,439041,-22,-250,979,680,100,0,0,0,0,3,
165617,16307,425081,439288,-25,-250,978,680,100,0,0,0,0,3,
165724,16307,424984,439189,-23,-250,977,680,100,0,0,0,0,3,
165113,16210,423938,437677,-24,-249,975,680,100,0,0,0,0,3,
164045,16090,422971,436218,-25,-250,977,680,100,0,0,0,0,3,
163558,16066,422654,435802,-24,-250,978,680,100,0,0,0,0,3,
163478,16081,422622,435852,-19,-250,976,680,100,0,0,0,0,3,
163533,16098,422701,436005,-24,-250,978,680,100,0,0,0,0,3,
163651,16124,422834,436267,-23,-250,977,680,100,0,0,0,0,3,
163782,16150,422935,436544,-22,-249,977,680,100,0,0,0,0,3,
163899,16159,423005,436740,-23,-248,977,680,100,0,0,0,0,3,
164012,16162,423079,436846,-23,-250,979,680,100,0,0,0,0,3,
164069,16165,423089,436950,-21,-249,979,680,100,0,0,0,0,3,
164167,16180,423187,437137,-23,-249,979,680,100,0,0,0,0,3,
164289,16198,423267,437391,-23,-249,978,680,100,0,0,0,0,3,
164488,16215,423459,437709,-24,-249,978,680,100,0,0,0,0,3,
164671,16229,423587,437943,-22,-249,977,680,100,0,0,0,0,3,
164822,16246,423682,438164,-22,-250,978,680,100,0,0,0,0,3,
164981,16261,423789,438368,-20,-249,978,680,100,0,0,0,0,3,
165151,16279,423892,438575,-21,-249,977,680,100,0,0,0,0,3,
165320,16294,424009,438776,-19,-249,977,680,100,0,0,0,0,3,
165504,16307,424110,438970,-23,-249,978,680,100,0,0,0,0,3,
165662,16326,424219,439177,-22,-248,978,680,100,0,0,0,0,3,
165845,16342,424296,439329,-21,-249,977,680,100,0,0,0,0,3,
165605,16288,423675,438471,-21,-249,978,680,100,0,0,0,0,3,
164658,16159,422628,436862,-20,-249,977,680,100,0,0,0,0,3,
163986,16096,422205,436144,-23,-249,978,680,100,0,0,0,0,3,
163826,16106,422114,436059,-24,-249,977,680,100,0,0,0,0,3,
163811,16123,422077,436122,-19,-249,977,680,100,0,0,0,0,3,
163856,16142,422102,436246,-22,-249,978,680,100,0,0,0,0,3,
163974,16170,422203,436532,-22,-249,979,680,100,0,0,0,0,3,
164101,16177,422248,436691,-20,-249,978,680,100,0,0,0,0,3,
164160,16181,422238,436752,-20,-249,977,680,100,0,0,0,0,3,
164220,16183,422252,436848,-19,-249,979,680,100,0,0,0,0,3,
164335,16200,422377,437037,-18,-248,979,680,100,0,0,0,0,3,
164481,16219,422458,437248,-18,-249,979,680,100,0,0,0,0,3,
164601,16237,422519,437468,-20,-248,977,680,100,0,0,0,0,3,
164832,16252,422726,437751,-20,-248,978,680,100,0,0,0,0,3,
165012,16269,422827,437979,-20,-248,978,680,100,0,0,0,0,3,
165140,16281,422889,438148,-18,-249,979,680,100,0,0,0,0,3,
165310,16300,423009,438339,-21,-248,979,680,100,0,0,0,0,3,
165461,16316,423070,438504,-19,-249,979,680,100,0,0,0,0,3,
165586,16331,423114,438640,-18,-248,980,680,100,0,0,0,0,3,
165769,16350,423240,438863,-19,-247,980,680,100,0,0,0,0,3,
165955,16370,423361,439043,-18,-248,978,680,100,0,0,0,0,3,
165899,16352,422981,438581,-20,-249,976,680,100,0,0,0,0,3,
165114,16243,421983,437059,-17,-248,979,680,100,0,0,0,0,3,
164307,16154,421389,436086,-18,-248,978,680,100,0,0,0,0,3,
164068,16160,421280,435934,-19,-248,979,680,100,0,0,0,0,3,
164095,16180,421331,436029,-18,-248,977,680,100,0,0,0,0,3,
164141,16198,421378,436126,-20,-248,979,680,100,0,0,0,0,3,
164245,16222,421467,436394,-17,-249,979,680,100,0,0,0,0,3,
164352,16230,421523,436570,-20,-248,978,680,100,0,0,0,0,3,
164391,16231,421512,436605,-19,-248,977,680,100,0,0,0,0,3,
164438,16233,421517,436691,-18,-248,978,680,100,0,0,0,0,3,
164534,16243,421626,436869,-19,-248,979,680,100,0,0,0,0,3,
164644,16259,421707,437070,-17,-249,978,690,100,0,0,0,0,3,
164787,16273,421828,437302,-18,-249,979,690,100,0,0,0,0,3,
164946,16290,421988,437529,-19,-249,978,690,100,0,0,0,0,3,
165131,16306,422125,437759,-18,-248,978,690,100,0,0,0,0,3,
165299,16311,422255,437962,-17,-248,978,690,100,0,0,0,0,3,
165441,16327,422353,438124,-18,-248,979,700,100,0,0,0,0,3,
165479,16332,422316,438189,-17,-248,978,700,100,0,0,0,0,3,
165575,16352,422353,438334,-19,-248,979,700,100,0,0,0,0,3,
165785,16367,422546,438608,-18,-248,979,700,100,0,0,0,0,3,
165935,16385,422644,438792,-18,-249,980,700,100,0,0,0,0,3,
165888,16376,422349,438421,-19,-247,978,700,100,0,0,0,0,3,
165096,16271,421320,436915,-18,-248,978,700,100,0,0,0,0,3,
164242,16186,420664,435898,-18,-246,979,700,100,0,0,0,0,3,
163935,16179,420504,435678,-17,-247,979,700,100,0,0,0,0,3,
163921,16191,420534,435746,-19,-248,979,700,100,0,0,0,0,3,
163870,16197,420474,435745,-16,-248,980,710,100,0,0,0,0,3,
163958,16214,420599,435996,-15,-247,978,710,100,0,0,0,0,3,
164048,16227,420646,436183,-16,-247,978,710,100,0,0,0,0,3,
164060,16220,420593,436172,-20,-247,979,710,100,0,0,0,0,3,
164053,16218,420599,436210,-16,-248,979,710,100,0,0,0,0,3,
164097,16230,420652,436331,-18,-248,979,720,100,0,0,0,0,3,
164173,16243,420729,436519,-18,-247,979,720,100,0,0,0,0,3,
164319,16258,420882,436764,-16,-247,980,720,100,0,0,0,0,3,
164430,16270,420963,436947,-18,-247,978,720,100,0,0,0,0,3,
164535,16283,421018,437079,-20,-248,977,720,100,0,0,0,0,3,
164656,16293,421086,437237,-20,-248,978,720,100,0,0,0,0,3,
164689,16303,421018,437268,-18,-247,979,720,100,0,0,0,0,3,
164736,16317,420995,437371,-17,-247,980,720,100,0,0,0,0,3,
164884,16331,421131,437580,-18,-248,978,720,100,0,0,0,0,3,
165036,16354,421218,437769,-19,-247,978,720,100,0,0,0,0,3,
165083,16353,421088,437689,-20,-248,978,720,100,0,0,0,0,3,
164525,16273,420238,436435,-18,-248,980,720,100,0,0,0,0,3,
163515,16157,419388,435104,-17,-248,979,720,100,0,0,0,0,3,
163048,16128,419150,434695,-20,-248,978,720,100,0,0,0,0,3,
162919,16117,419113,434629,-17,-248,979,720,100,0,0,0,0,3,
162730,16093,418961,434463,-18,-247,978,720,100,0,0,0,0,3,
162571,16088,418815,434438,-16,-248,979,720,100,0,0,0,0,3,
162600,16105,418868,434590,-18,-248,978,720,100,0,0,0,0,3,
162652,16108,418924,434751,-18,-247,979,720,100,0,0,0,0,3,
162613,16093,418892,434727,-19,-248,978,720,100,0,0,0,0,3,
162599,16097,418906,434826,-16,-247,980,720,100,0,0,0,0,3,
162653,16110,418988,434999,-16,-247,978,720,100,0,0,0,0,3,
162763,16122,419099,435246,-17,-246,980,720,100,0,0,0,0,3,
162869,16131,419209,435422,-17,-247,980,720,100,0,0,0,0,3,
162994,16138,419307,435607,-16,-247,982,720,100,0,0,0,0,3,
163030,16147,419268,435667,-16,-247,979,720,100,0,0,0,0,3,
163098,16155,419294,435784,-16,-247,981,720,100,0,0,0,0,3,
163167,16172,419342,435898,-16,-246,978,720,100,0,0,0,0,3,
163228,16184,419333,436004,-16,-247,980,720,100,0,0,0,0,3,
163343,16201,419433,436221,-15,-246,979,720,100,0,0,0,0,3,
163474,16216,419465,436304,-15,-247,980,720,100,0,0,0,0,3,
163172,16161,418875,435491,-16,-246,979,720,100,0,0,0,0,3,
162135,16023,417918,433921,-16,-246,979,720,100,0,0,0,0,3,
161354,15953,417409,433105,-15,-247,980,720,100,0,0,0,0,3,
160930,15912,417183,432765,-17,-247,981,720,100,0,0,0,0,3,
160624,15863,417068,432578,-18,-247,980,720,100,0,0,0,0,3,
160260,15816,416875,432329,-16,-247,979,720,100,0,0,0,0,3,
160014,15808,416728,432280,-17,-247,980,720,100,0,0,0,0,3,
159986,15831,416767,432441,-17,-246,979,720,100,0,0,0,0,3,
159928,15830,416732,432478,-16,-246,979,720,100,0,0,0,0,3,
159803,15824,416642,432411,-15,-247,979,720,100,0,0,0,0,3,
159809,15837,416749,432570,-17,-247,981,720,100,0,0,0,0,3,
159861,15853,416791,432749,-15,-246,980,720,100,0,0,0,0,3,
159938,15872,416905,432968,-18,-246,981,720,100,0,0,0,0,3,
160026,15883,416969,433157,-17,-247,978,720,100,0,0,0,0,3,
160094,15903,417040,433313,-17,-247,979,710,100,0,0,0,0,3,
160171,15913,417119,433469,-15,-246,982,710,100,0,0,0,0,3,
160231,15927,417154,433571,-20,-247,980,710,100,0,0,0,0,3,
160308,15941,417196,433674,-17,-246,979,710,100,0,0,0,0,3,
160416,15957,417257,433840,-16,-246,981,710,100,0,0,0,0,3,
160560,15978,417369,434051,-18,-246,978,710,100,0,0,0,0,3,
160633,15979,417285,433993,-16,-246,981,710,100,0,0,0,0,3,
160013,15886,416511,432722,-16,-247,981,710,100,0,0,0,0,3,
158926,15751,415695,431334,-18,-247,980,710,100,0,0,0,0,3,
158180,15681,415262,430672,-17,-248,979,710,100,0,0,0,0,3,
157639,15629,415042,430298,-17,-247,980,710,100,0,0,0,0,3,
157152,15579,414843,430043,-18,-247,980,710,100,0,0,0,0,3,
156775,15546,414758,429905,-16,-246,980,710,100,0,0,0,0,3,
156668,15561,414821,430060,-16,-247,980,710,100,0,0,0,0,3,
156676,15579,414871,430193,-18,-247,979,710,100,0,0,0,0,3,
156578,15572,414774,430154,-18,-247,981,710,100,0,0,0,0,3,
156532,15572,414782,430173,-18,-247,980,710,100,0,0,0,0,3,
156531,15595,414799,430285,-16,-247,981,710,100,0,0,0,0,3,
156655,15617,414949,430526,-18,-246,978,710,100,0,0,0,0,3,
156759,15639,415014,430752,-17,-247,979,710,100,0,0,0,0,3,
156879,15659,415127,430945,-19,-247,981,710,100,0,0,0,0,3,
157018,15680,415274,431141,-16,-247,980,710,100,0,0,0,0,3,
157122,15696,415317,431304,-19,-247,981,710,100,0,0,0,0,3,
157207,15718,415392,431424,-17,-247,979,710,100,0,0,0,0,3,
157299,15736,415433,431578,-17,-247,980,710,100,0,0,0,0,3,
157446,15758,415583,431776,-17,-246,978,710,100,0,0,0,0,3,
157561,15777,415649,431958,-20,-247,981,710,100,0,0,0,0,3,
157683,15797,415666,432056,-17,-246,979,710,100,0,0,0,0,3,
157373,15749,415154,431232,-17,-246,981,710,100,0,0,0,0,3,
156300,15596,414277,429710,-18,-247,979,710,100,0,0,0,0,3,
155369,15505,413813,428877,-18,-247,979,710,100,0,0,0,0,3,
154680,15456,413570,428478,-16,-246,980,710,100,0,0,0,0,3,
154149,15414,413359,428174,-18,-246,979,710,100,0,0,0,0,3,
153707,15379,413222,427959,-18,-246,980,710,100,0,0,0,0,3,
153503,15385,413217,428010,-16,-246,979,710,100,0,0,0,0,3,
153590,15421,413265,428253,-16,-246,981,710,100,0,0,0,0,3,
153581,15423,413232,428245,-17,-246,977,710,100,0,0,0,0,3,
153553,15430,413277,428314,-17,-247,979,710,100,0,0,0,0,3,
153617,15449,413362,428454,-19,-246,979,710,100,0,0,0,0,3,
153728,15477,413433,428666,-16,-246,980,710,100,0,0,0,0,3,
153882,15511,413539,428884,-16,-246,979,710,100,0,0,0,0,3,
154046,15535,413615,429069,-19,-246,982,710,100,0,0,0,0,3,
154219,15561,413712,429269,-17,-246,979,710,100,0,0,0,0,3,
154386,15582,413816,429479,-19,-246,980,710,100,0,0,0,0,3,
154557,15610,413918,429679,-17,-246,979,710,100,0,0,0,0,3,
154712,15634,414006,429840,-18,-247,980,710,100,0,0,0,0,3,
154895,15654,414140,430085,-17,-246,979,710,100,0,0,0,0,3,
155063,15680,414271,430305,-19,-246,979,710,100,0,0,0,0,3,
155233,15701,414400,430496,-20,-247,979,710,100,0,0,0,0,3,
155389,15718,414429,430601,-19,-247,979,710,100,0,0,0,0,3,
155123,15669,413943,429829,-17,-247,979,710,100,0,0,0,0,3,
154118,15516,413146,428376,-17,-247,979,710,100,0,0,0,0,3,
153160,15424,412719,427589,-17,-246,980,710,100,0,0,0,0,3,
152504,15382,412519,427260,-17,-246,979,710,100,0,0,0,0,3,
151986,15348,412318,426969,-17,-246,979,710,100,0,0,0,0,3,
151586,15320,412195,426813,-16,-247,980,710,100,0,0,0,0,3,
151494,15332,412237,426951,-16,-246,980,710,100,0,0,0,0,3,
151589,15354,412322,427173,-17,-246,981,710,100,0,0,0,0,3,
151584,15358,412299,427182,-17,-247,978,710,100,0,0,0,0,3,
151608,15367,412371,427287,-18,-247,978,710,100,0,0,0,0,3,
151706,15393,412454,427463,-13,-245,979,710,100,0,0,0,0,3,
151846,15426,412490,427642,-18,-246,979,710,100,0,0,0,0,3,
152070,15450,412658,427910,-19,-246,979,710,100,0,0,0,0,3,
152300,15478,412832,428202,-16,-247,979,710,100,0,0,0,0,3,
152487,15501,412960,428404,-18,-247,980,710,100,0,0,0,0,3,
152608,15525,412971,428519,-17,-246,978,710,100,0,0,0,0,3,
152773,15549,413065,428720,-20,-246,979,710,100,0,0,0,0,3,
152979,15570,413178,428932,-16,-246,980,710,100,0,0,0,0,3,
153184,15597,413304,429141,-19,-246,980,710,100,0,0,0,0,3,
153371,15620,413404,429313,-17,-247,980,710,100,0,0,0,0,3,
153590,15648,413541,429574,-18,-246,979,710,100,0,0,0,0,3,
153820,15673,413677,429801,-18,-245,978,710,100,0,0,0,0,3,
153797,15653,413422,429411,-19,-247,979,710,100,0,0,0,0,3,
152887,15504,412636,427989,-20,-247,979,710,100,0,0,0,0,3,
151880,15411,412111,427081,-19,-247,979,710,100,0,0,0,0,3,
151243,15376,411917,426761,-17,-247,980,710,100,0,0,0,0,3,
150871,15353,411880,426637,-19,-246,979,710,100,0,0,0,0,3,
150547,15328,411789,426486,-21,-246,979,710,100,0,0,0,0,3,
150428,15336,411808,426575,-17,-246,978,710,100,0,0,0,0,3,
150565,15372,411881,426799,-19,-246,979,710,100,0,0,0,0,3,
150616,15376,411846,426830,-20,-246,979,710,100,0,0,0,0,3,
150626,15387,411843,426865,-18,-246,980,710,100,0,0,0,0,3,
150770,15409,411930,427075,-18,-246,979,710,100,0,0,0,0,3,
150944,15439,412083,427326,-19,-246,980,710,100,0,0,0,0,3,
151203,15470,412269,427619,-19,-247,979,710,100,0,0,0,0,3,
151424,15494,412404,427852,-19,-246,979,710,100,0,0,0,0,3,
151627,15524,412512,428052,-19,-247,980,710,100,0,0,0,0,3,
151867,15549,412649,428310,-19,-246,980,710,100,0,0,0,0,3,
152110,15575,412821,428532,-18,-245,980,710,100,0,0,0,0,3,
152312,15594,412888,428727,-19,-247,980,710,100,0,0,0,0,3,
152470,15619,412940,428891,-20,-246,979,710,100,0,0,0,0,3,
152651,15643,413003,429063,-21,-247,981,710,100,0,0,0,0,3,
152877,15671,413184,429352,-17,-246,979,710,100,0,0,0,0,3,
153131,15694,413300,429556,-18,-245,980,710,100,0,0,0,0,3,
153001,15660,412958,429007,-17,-245,980,710,100,0,0,0,0,3,
152013,15519,412103,427580,-17,-246,981,710,100,0,0,0,0,3,
151030,15431,411657,426775,-18,-246,979,710,100,0,0,0,0,3,
150368,15398,411461,426448,-17,-246,979,710,100,0,0,0,0,3,
149931,15370,411314,426230,-19,-247,979,710,100,959,24,0,0,3,
149557,15338,411224,426079,-18,-246,978,710,100,959,24,0,0,3,
149420,15343,411235,426160,-18,-247,980,710,100,959,24,0,0,3,
149592,15374,411331,426397,-19,-247,978,710,100,959,24,0,0,3,
149699,15394,411309,426473,-20,-247,981,710,100,959,24,0,0,3,
149751,15401,411304,426547,-15,-246,980,710,100,959,24,0,0,3,
149860,15422,411353,426678,-18,-246,979,710,100,959,24,0,0,3,
150095,15460,411496,426942,-16,-246,980,710,100,959,24,0,0,3,
150334,15498,411617,427225,-19,-247,980,710,100,959,24,0,0,3,
150582,15524,411777,427519,-18,-245,979,710,100,959,24,0,0,3,
150800,15553,411887,427770,-19,-247,980,710,100,959,24,0,0,3,
151036,15582,412014,427992,-18,-246,979,710,100,959,24,0,0,3,
151270,15611,412129,428224,-19,-246,978,710,100,959,24,0,0,3,
151486,15640,412221,428451,-19,-247,980,710,100,959,24,0,0,3,
151702,15667,412378,428705,-18,-246,979,710,100,959,24,0,0,3,
151917,15695,412494,428932,-17,-247,978,710,100,959,24,0,0,3,
152185,15717,412699,429194,-19,-246,979,710,100,959,24,0,0,3,
152385,15744,412755,429383,-18,-247,978,700,100,959,24,0,0,3,
152524,15759,412698,429398,-17,-247,979,700,100,959,24,0,0,3,
152045,15686,412043,428304,-18,-247,979,700,100,959,24,0,0,3,
150951,15564,411238,426892,-18,-247,979,700,100,959,24,0,0,3,
150145,15507,410843,426295,-20,-247,980,700,100,959,24,0,0,3,
149642,15485,410650,425998,-18,-246,979,700,100,959,24,0,0,3,
149295,15462,410533,425793,-18,-245,979,700,100,959,24,0,0,3,
149055,15440,410444,425697,-17,-247,980,700,100,959,24,0,0,3,
149034,15456,410452,425811,-17,-247,981,700,100,958,26,0,0,3,
149196,15487,410519,426040,-18,-247,979,700,100,958,26,0,0,3,
149269,15501,410461,426102,-18,-247,980,700,100,958,26,0,0,3,
149331,15510,410446,426168,-18,-247,980,700,100,958,26,0,0,3,
149499,15539,410549,426404,-17,-246,980,700,100,958,26,0,0,3,
149767,15573,410731,426734,-18,-247,981,700,100,958,26,0,0,3,
150027,15596,410876,427036,-19,-246,980,700,100,958,26,0,0,3,
150241,15624,410980,427297,-18,-247,980,700,100,958,26,0,0,3,
150491,15653,411129,427563,-21,-247,979,700,100,958,26,0,0,3,
150715,15675,411207,427782,-21,-247,979,700,100,958,26,0,0,3,
150959,15695,411315,428014,-22,-247,979,700,100,958,26,0,0,3,
151174,15721,411422,428235,-19,-246,980,700,100,958,26,0,0,3,
151412,15743,411536,428472,-19,-246,981,700,100,958,26,0,0,3,
151646,15772,411628,428687,-20,-247,979,700,100,958,26,0,0,3,
151892,15794,411767,428955,-21,-246,980,700,100,958,26,0,0,3,
152119,15825,411868,429205,-21,-246,979,700,100,958,26,0,0,3,
152288,15839,411830,429192,-19,-247,980,700,100,958,26,0,0,3,
151639,15760,411016,427863,-19,-247,981,700,100,958,26,0,0,3,
150497,15646,410181,426403,-20,-246,980,700,100,958,26,0,0,3,
149895,15623,409839,425883,-20,-246,979,700,100,958,26,0,0,3,
149553,15613,409633,425634,-20,-247,980,700,100,958,26,0,0,3,
149339,15620,409540,425523,-22,-246,979,700,100,958,26,0,0,3,
149208,15622,409485,425480,-20,-247,981,700,100,958,26,0,0,3,
149319,15656,409595,425733,-20,-246,980,700,100,958,26,0,0,3,
149546,15690,409737,426028,-19,-247,980,700,100,958,26,0,0,3,
149713,15705,409801,426186,-20,-246,978,700,100,958,28,0,0,3,
149818,15719,409811,426292,-21,-247,979,700,100,958,28,0,0,3,
149962,15744,409851,426505,-24,-246,980,700,100,958,28,0,0,3,
150188,15772,409996,426806,-21,-247,979,700,100,958,28,0,0,3,
150386,15793,410016,427038,-20,-246,978,700,100,958,28,0,0,3,
150607,15809,410060,427262,-20,-248,981,700,100,958,28,0,0,3,
150849,15831,410097,427483,-19,-247,978,700,100,958,28,0,0,3,
151048,15851,410072,427656,-23,-246,980,700,100,958,28,0,0,3,
151256,15868,410116,427878,-23,-247,978,700,100,958,28,0,0,3,
151541,15891,410293,428226,-24,-248,979,700,100,958,28,0,0,3,
151819,15915,410435,428518,-20,-248,979,700,100,958,28,0,0,3,
151995,15933,410478,428717,-24,-247,980,700,100,958,28,0,0,3,
152246,15953,410646,429035,-25,-248,979,700,100,958,28,0,0,3,
152530,15977,410855,429394,-27,-247,979,700,100,958,28,0,0,3,
152775,15993,410947,429528,-27,-248,979,700,100,958,28,0,0,3,
152311,15925,410118,428281,-29,-248,979,700,100,958,28,0,0,3,
150978,15804,409166,426522,-28,-248,979,700,100,958,28,0,0,3,
150290,15764,408772,425838,-26,-248,979,700,100,958,28,0,0,3,
150151,15781,408720,425758,-28,-247,977,700,100,958,28,0,0,3,
150112,15794,408686,425746,-29,-248,978,700,100,958,28,0,0,3,
150128,15820,408689,425792,-28,-248,979,700,100,958,28,0,0,3,
150295,15862,408812,426115,-28,-247,979,700,100,958,28,0,0,3,
150481,15896,408847,426392,-30,-247,980,700,100,958,28,0,0,3,
150596,15916,408821,426486,-27,-248,978,700,100,958,28,0,0,3,
150774,15936,408909,426683,-27,-248,980,700,100,958,28,0,0,3,
151046,15958,409130,427036,-28,-248,979,700,100,957,29,0,0,3,
151340,15985,409353,427409,-29,-247,979,700,100,957,29,0,0,3,
151637,16011,409571,427779,-28,-247,979,700,100,957,29,0,0,3,
151898,16032,409705,428060,-28,-247,981,700,100,957,29,0,0,3,
152143,16051,409846,428339,-29,-247,977,700,100,957,29,0,0,3,
152457,16074,410049,428664,-31,-247,979,700,100,957,29,0,0,3,
152687,16093,410185,428880,-30,-249,977,700,100,957,29,0,0,3,
152952,16114,410339,429170,-27,-248,978,700,100,957,29,0,0,3,
153229,16137,410477,429422,-28,-247,979,700,100,957,29,0,0,3,
153467,16155,410602,429658,-29,-247,978,700,100,957,29,0,0,3,
153729,16177,410726,429901,-29,-247,981,700,100,957,29,0,0,3,
153962,16201,410864,430153,-31,-247,978,700,100,957,29,0,0,3,
154240,16223,411036,430444,-28,-247,980,700,100,957,29,0,0,3,
154283,16215,410767,430078,-29,-247,979,700,100,957,29,0,0,3,
153309,16113,409662,428284,-29,-248,978,700,100,957,29,0,0,3,
152164,16041,408975,427031,-28,-248,979,700,100,957,29,0,0,3,
151919,16057,408924,426863,-27,-248,978,700,100,957,29,0,0,3,
151921,16078,408944,426892,-29,-248,979,700,100,957,29,0,0,3,
151983,16095,408956,426965,-29,-248,977,700,100,957,29,0,0,3,
152122,16126,409063,427182,-26,-249,980,700,100,957,29,0,0,3,
152417,16161,409295,427580,-29,-248,977,700,100,957,29,0,0,3,
152543,16182,409288,427673,-31,-247,979,700,100,957,29,0,0,3,
152643,16196,409285,427756,-26,-247,978,700,100,957,29,0,0,3,
152792,16218,409308,427912,-26,-248,979,700,100,957,29,0,0,3,
153000,16251,409387,428197,-29,-247,977,700,100,957,29,0,0,3,
153318,16278,409569,428598,-30,-247,979,700,100,957,31,0,0,3,
153737,16300,409867,429033,-28,-247,979,700,100,957,31,0,0,3,
153992,16316,409956,429270,-28,-248,978,700,100,957,31,0,0,3,
154200,16336,409996,429468,-30,-248,980,700,100,957,31,0,0,3,
154419,16355,410118,429693,-31,-246,978,700,100,957,31,0,0,3,
154642,16371,410209,429916,-28,-248,978,700,100,957,31,0,0,3,
154847,16387,410274,430125,-30,-247,979,700,100,957,31,0,0,3,
155071,16403,410428,430381,-28,-248,978,700,100,957,31,0,0,3,
155335,16424,410621,430661,-26,-248,978,700,100,957,31,0,0,3,
155565,16443,410749,430920,-25,-247,980,700,100,957,31,0,0,3,
155750,16462,410822,431058,-25,-248,978,700,100,957,31,0,0,3,
155478,16411,410108,430059,-28,-247,978,700,100,957,31,0,0,3,
154194,16305,408990,428216,-27,-248,979,700,100,957,31,0,0,3,
153425,16274,408635,427483,-28,-248,979,700,100,957,31,0,0,3,
153282,16292,408575,427392,-28,-248,979,700,100,957,31,0,0,3,
153308,16311,408616,427463,-29,-247,978,700,100,957,31,0,0,3,
153405,16331,408717,427644,-26,-248,979,700,100,957,31,0,0,3,
153667,16366,408998,428021,-29,-248,979,690,100,957,31,0,0,3,
153876,16387,409111,428262,-31,-248,978,690,100,957,31,0,0,3,
154027,16401,409175,428422,-32,-247,978,690,100,957,31,0,0,3,
154191,16418,409271,428573,-30,-248,978,690,100,957,31,0,0,3,
154378,16437,409390,428827,-30,-248,977,690,100,957,31,0,0,3,
154626,16458,409589,429153,-31,-248,979,690,100,957,31,0,0,3,
154869,16480,409753,429433,-30,-248,979,690,100,957,31,0,0,3,
155093,16504,409861,429674,-30,-248,980,690,100,957,31,0,0,3,
155274,16526,409888,429859,-30,-248,979,690,100,958,33,0,0,3,
155548,16546,410042,430140,-30,-248,978,690,100,958,33,0,0,3,
155777,16564,410138,430370,-29,-248,977,690,100,958,33,0,0,3,
155985,16587,410207,430563,-28,-248,979,690,100,958,33,0,0,3,
156095,16605,410108,430632,-32,-246,977,690,100,958,33,0,0,3,
156306,16627,410221,430894,-32,-247,977,690,100,958,33,0,0,3,
156523,16666,410329,431144,-32,-246,977,690,100,958,33,0,0,3,
156737,16695,410465,431343,-28,-248,980,690,100,958,33,0,0,3,
156657,16687,409985,430830,-32,-247,979,690,100,958,33,0,0,3,
155663,16579,408712,428984,-30,-248,978,690,100,958,33,0,0,3,
154381,16513,407790,427532,-31,-248,978,690,100,958,33,0,0,3,
153881,16515,407459,427139,-32,-248,977,690,100,958,33,0,0,3,
153748,16544,407316,427048,-36,-247,977,690,100,958,33,0,0,3,
153681,16578,407148,426977,-24,-248,979,690,100,958,33,0,0,3,
153721,16630,407149,427105,-26,-247,978,690,100,958,33,0,0,3,
153954,16690,407317,427509,-20,-249,979,690,100,958,33,0,0,3,
154259,16731,407611,427871,-30,-247,977,690,100,958,33,0,0,3,
154549,16770,407885,428174,-30,-247,979,690,100,958,33,0,0,3,
154675,16799,407847,428201,-39,-246,979,690,100,958,33,0,0,3,
154754,16831,407732,428348,-42,-246,978,690,100,958,33,0,0,3,
155084,16863,407946,428741,-30,-247,979,690,100,958,33,0,0,3,
155269,16888,407840,428905,-25,-247,979,690,100,958,33,0,0,3,
155664,16921,408002,429266,-17,-246,981,690,100,958,33,0,0,3,
155965,16954,408013,429463,-20,-246,980,690,100,958,33,0,0,3,
156324,17005,408251,429805,-29,-246,979,690,100,958,33,0,0,3,
156747,17055,408583,430179,-20,-246,980,690,100,958,35,0,0,3,
157242,17093,409065,430614,-20,-247,979,690,100,958,35,0,0,3,
157453,17120,409132,430745,-24,-246,980,680,100,958,35,0,0,3,
157678,17141,409264,430907,-28,-247,977,680,100,958,35,0,0,3,
157806,17174,409078,430897,-32,-245,978,680,100,958,35,0,0,3,
157932,17200,408875,430544,-29,-247,978,680,100,958,35,0,0,3,
157093,17126,407671,428761,-19,-247,980,680,100,958,35,0,0,3,
155763,17089,406393,427137,-10,-247,981,680,100,958,35,0,0,3,
155344,17123,406100,426789,-14,-244,979,680,100,958,35,0,0,3,
155094,17141,405542,426454,-15,-245,979,680,100,958,35,0,0,3,
154498,17124,404255,425731,-23,-244,978,680,100,958,35,0,0,3,
154269,17125,403522,425742,-14,-247,981,680,100,958,35,0,0,3,
154476,17152,403453,426317,-5,-243,980,680,100,958,35,0,0,3,
154670,17175,403508,426809,-6,-242,981,680,100,958,35,0,0,3,
154905,17202,403779,427142,-24,-240,981,680,100,958,35,0,0,3,
155004,17222,403807,427290,0,-246,979,680,100,958,35,0,0,3,
155033,17235,403833,427577,0,-246,980,680,100,958,35,0,0,3,
155360,17262,404236,428065,-38,-257,978,680,100,958,35,0,0,3,
155558,17269,404419,428337,-41,-249,978,680,100,958,35,0,0,3,
155706,17284,404478,428530,-41,-248,978,680,100,958,35,0,0,3,
155596,17276,404304,428600,-51,-249,979,680,100,958,35,0,0,3,
155725,17276,404580,428982,-55,-245,977,680,100,958,35,0,0,3,
156023,17273,404936,429370,-48,-249,977,680,100,958,35,0,0,3,
156267,17258,405351,429827,-58,-248,979,680,100,958,35,0,0,3,
156585,17251,405752,430232,-61,-246,978,680,100,958,35,0,0,3,
156874,17266,405955,430430,-56,-247,979,680,100,959,41,0,0,3,
157119,17256,405786,430135,-48,-248,978,680,100,959,41,0,0,3,
156815,17157,404913,428812,-49,-246,978,680,100,959,41,0,0,3,
