Timestamp,PPG1,PPG2,PPG3,PPG4,PPG5
2025-05-29 15:09:25.075,89294,6951,3994,50763,79248
2025-05-29 15:09:25.120,89325,6958,3996,50764,79247
2025-05-29 15:09:25.122,89325,6966,3999,50778,79266
2025-05-29 15:09:25.123,89333,6973,4010,50782,79270
2025-05-29 15:09:25.124,89330,6982,4008,50769,79281
2025-05-29 15:09:25.126,89347,6988,4009,50783,79304
2025-05-29 15:09:25.128,89345,7000,4008,50780,79274
2025-05-29 15:09:25.130,89355,6993,4008,50784,79301
2025-05-29 15:09:25.131,89356,7005,4022,50772,79307
2025-05-29 15:09:25.132,89364,7012,4021,50785,79305
2025-05-29 15:09:25.133,89393,7015,4024,50791,79333
2025-05-29 15:09:25.135,89373,7026,4025,50797,79322
2025-05-29 15:09:25.137,89382,7025,4031,50796,79321
2025-05-29 15:09:25.139,89411,7036,4034,50793,79338
2025-05-29 15:09:25.141,89426,7047,4034,50807,79344
2025-05-29 15:09:25.143,89425,7048,4035,50803,79361
2025-05-29 15:09:25.144,89433,7057,4050,50819,79366
2025-05-29 15:09:25.146,89432,7061,4049,50809,79365
2025-05-29 15:09:25.147,89453,7075,4048,50818,79374
2025-05-29 15:09:25.148,89453,7083,4056,50825,79395
2025-05-29 15:09:25.149,89469,7095,4052,50831,79398
2025-05-29 15:09:25.152,89469,7094,4060,50826,79412
2025-05-29 15:09:25.160,89492,7094,4068,50833,79418
2025-05-29 15:09:25.614,89477,7092,4063,50834,79441
2025-05-29 15:09:25.616,89480,7112,4066,50841,79441
2025-05-29 15:09:25.617,89488,7112,4074,50836,79453
2025-05-29 15:09:25.619,89507,7118,4073,50850,79459
2025-05-29 15:09:25.620,89502,7129,4075,50845,79463
2025-05-29 15:09:25.621,89500,7138,4076,50856,79481
2025-05-29 15:09:25.622,89520,7138,4084,50856,79477
2025-05-29 15:09:25.623,89502,7150,4086,50861,79501
2025-05-29 15:09:25.624,89520,7162,4082,50864,79505
2025-05-29 15:09:25.625,89520,7171,4096,50866,79517
2025-05-29 15:09:25.627,89527,7161,4094,50876,79523
2025-05-29 15:09:25.629,89547,7168,4098,50874,79521
2025-05-29 15:09:25.630,89552,7181,4096,50871,79522
2025-05-29 15:09:25.633,89562,7193,4108,50891,79563
2025-05-29 15:09:25.635,89565,7194,4104,50883,79558
2025-05-29 15:09:25.637,89586,7200,4112,50900,79575
2025-05-29 15:09:25.639,89583,7203,4112,50873,79584
2025-05-29 15:09:25.640,89560,7205,4110,50890,79581
2025-05-29 15:09:25.641,89553,7192,4113,50869,79569
2025-05-29 15:09:25.642,89513,7169,4108,50882,79549
2025-05-29 15:09:25.643,89490,7145,4103,50872,79501
2025-05-29 15:09:25.644,89458,7121,4089,50870,79485
2025-05-29 15:09:25.645,89452,7083,4080,50851,79468
2025-05-29 15:09:25.647,89397,7052,4073,50836,79434
2025-05-29 15:09:25.648,89382,7028,4066,50847,79403
2025-05-29 15:09:25.648,89353,6986,4042,50829,79374
2025-05-29 15:09:25.649,89324,6965,4034,50821,79362
2025-05-29 15:09:25.650,89304,6942,4028,50815,79353
2025-05-29 15:09:25.650,89306,6921,4008,50811,79335
2025-05-29 15:09:25.651,89306,6921,4008,50811,79335
2025-05-29 15:09:25.652,89291,6893,4012,50807,79312
2025-05-29 15:09:25.652,89280,6889,4003,50804,79291
2025-05-29 15:09:25.653,89256,6876,4000,50801,79287
2025-05-29 15:09:25.654,89244,6863,3991,50819,79303
2025-05-29 15:09:25.654,89239,6856,3980,50813,79293
2025-05-29 15:09:25.655,89233,6857,3986,50815,79283
2025-05-29 15:09:25.657,89226,6829,3983,50809,79264
2025-05-29 15:09:25.658,89209,6830,3977,50798,79260
2025-05-29 15:09:25.658,89199,6815,3968,50798,79254
2025-05-29 15:09:25.659,89193,6813,3971,50797,79238
2025-05-29 15:09:25.660,89176,6790,3966,50788,79235
2025-05-29 15:09:25.675,89171,6794,3964,50793,79224
2025-05-29 15:09:25.677,89180,6774,3952,50789,79224
2025-05-29 15:09:25.679,89169,6778,3952,50796,79230
2025-05-29 15:09:25.680,89171,6771,3958,50794,79228
2025-05-29 15:09:25.682,89159,6756,3957,50787,79192
2025-05-29 15:09:25.684,89170,6773,3952,50778,79211
2025-05-29 15:09:25.686,89162,6761,3952,50778,79206
2025-05-29 15:09:25.688,89162,6754,3963,50779,79182
2025-05-29 15:09:25.690,89158,6753,3960,50791,79204
2025-05-29 15:09:25.691,89174,6755,3958,50784,79199
2025-05-29 15:09:25.693,89164,6759,3958,50782,79194
2025-05-29 15:09:25.695,89157,6753,3956,50775,79188
2025-05-29 15:09:25.696,89156,6747,3944,50781,79185
2025-05-29 15:09:25.705,89143,6752,3961,50763,79181
2025-05-29 15:09:25.713,89155,6763,3941,50763,79181
2025-05-29 15:09:25.744,89158,6758,3960,50767,79175
2025-05-29 15:09:25.745,89142,6768,3965,50764,79175
2025-05-29 15:09:25.746,89151,6776,3963,50759,79162
2025-05-29 15:09:25.753,89141,6764,3955,50764,79155
2025-05-29 15:09:25.766,89144,6761,3962,50764,79162
2025-05-29 15:09:25.772,89154,6764,3960,50765,79164
2025-05-29 15:09:25.785,89157,6780,3953,50768,79170
2025-05-29 15:09:25.792,89155,6764,3967,50775,79175
2025-05-29 15:09:25.808,89167,6782,3964,50762,79173
2025-05-29 15:09:25.812,89176,6766,3977,50777,79176
2025-05-29 15:09:25.825,89162,6772,3963,50760,79174
2025-05-29 15:09:25.833,89171,6771,3968,50772,79185
2025-05-29 15:09:25.845,89174,6783,3974,50765,79188
2025-05-29 15:09:25.856,89173,6784,3977,50775,79194
2025-05-29 15:09:25.873,89188,6777,3976,50761,79189
2025-05-29 15:09:25.876,89189,6793,3967,50786,79203
2025-05-29 15:09:25.885,89184,6800,3980,50769,79192
2025-05-29 15:09:25.896,89181,6794,3988,50782,79190
2025-05-29 15:09:25.905,89191,6807,3991,50785,79197
2025-05-29 15:09:25.916,89199,6801,3990,50780,79231
2025-05-29 15:09:25.940,89183,6822,4000,50789,79223
2025-05-29 15:09:25.941,89201,6809,3996,50788,79216
2025-05-29 15:09:25.944,89213,6819,4003,50774,79226
2025-05-29 15:09:25.957,89206,6829,3996,50796,79236
2025-05-29 15:09:25.965,89214,6823,4009,50789,79238
2025-05-29 15:09:25.976,89219,6832,3994,50799,79251
2025-05-29 15:09:25.985,89212,6829,4007,50804,79240
2025-05-29 15:09:26.002,89223,6835,4008,50788,79244
2025-05-29 15:09:26.005,89228,6848,4001,50788,79242
2025-05-29 15:09:26.016,89233,6845,4005,50798,79242
2025-05-29 15:09:26.025,89232,6845,3994,50800,79261
2025-05-29 15:09:26.037,89227,6851,4003,50796,79261
2025-05-29 15:09:26.044,89248,6861,3996,50800,79271
2025-05-29 15:09:26.067,89244,6871,4013,50800,79264
2025-05-29 15:09:26.069,89249,6865,4003,50809,79276
2025-05-29 15:09:26.076,89258,6862,4024,50806,79294
2025-05-29 15:09:26.085,89251,6884,4006,50807,79287
2025-05-29 15:09:26.096,89261,6886,4023,50806,79309
2025-05-29 15:09:26.105,89278,6887,4028,50812,79301
2025-05-29 15:09:26.117,89283,6898,4023,50826,79300
2025-05-29 15:09:26.133,89286,6906,4029,50820,79316
2025-05-29 15:09:26.136,89307,6907,4027,50829,79322
2025-05-29 15:09:26.144,89304,6909,4046,50836,79337
2025-05-29 15:09:26.157,89307,6918,4053,50834,79335
2025-05-29 15:09:26.164,89310,6925,4048,50839,79342
2025-05-29 15:09:26.176,89321,6933,4057,50837,79347
2025-05-29 15:09:26.197,89316,6941,4050,50840,79357
2025-05-29 15:09:26.198,89336,6941,4074,50843,79376
2025-05-29 15:09:26.204,89342,6951,4060,50853,79391
2025-05-29 15:09:26.216,89344,6957,4081,50847,79399
2025-05-29 15:09:26.225,89353,6960,4066,50841,79389
2025-05-29 15:09:26.237,89352,6969,4083,50854,79395
2025-05-29 15:09:26.245,89365,6974,4074,50856,79424
2025-05-29 15:09:26.261,89383,6983,4073,50867,79422
2025-05-29 15:09:26.265,89376,6979,4079,50871,79428
2025-05-29 15:09:26.276,89393,6999,4072,50871,79441
2025-05-29 15:09:26.285,89398,7004,4084,50872,79445
2025-05-29 15:09:26.296,89409,7006,4091,50883,79457
2025-05-29 15:09:26.304,89418,7013,4093,50881,79460
2025-05-29 15:09:26.325,89414,7028,4092,50876,79472
2025-05-29 15:09:26.329,89428,7030,4100,50879,79483
2025-05-29 15:09:26.336,89437,7039,4102,50892,79494
2025-05-29 15:09:26.346,89442,7045,4107,50888,79491
2025-05-29 15:09:26.357,89448,7049,4117,50897,79504
2025-05-29 15:09:26.368,89458,7059,4112,50898,79524
2025-05-29 15:09:26.391,89460,7066,4122,50913,79520
2025-05-29 15:09:26.392,89472,7069,4119,50906,79539
2025-05-29 15:09:26.396,89482,7075,4125,50904,79540
2025-05-29 15:09:26.408,89488,7077,4126,50904,79565
2025-05-29 15:09:26.417,89491,7096,4127,50921,79557
2025-05-29 15:09:26.429,89500,7098,4134,50916,79559
2025-05-29 15:09:26.437,89502,7105,4145,50920,79574
2025-05-29 15:09:26.454,89520,7104,4134,50926,79579
2025-05-29 15:09:26.457,89519,7120,4140,50929,79596
2025-05-29 15:09:26.469,89532,7131,4147,50935,79600
2025-05-29 15:09:26.476,89518,7134,4146,50933,79617
2025-05-29 15:09:26.489,89540,7132,4145,50931,79624
2025-05-29 15:09:26.496,89547,7148,4158,50938,79630
2025-05-29 15:09:26.519,89559,7154,4161,50942,79645
2025-05-29 15:09:26.520,89562,7158,4163,50951,79652
2025-05-29 15:09:26.529,89569,7173,4167,50953,79660
2025-05-29 15:09:26.537,89586,7177,4162,50973,79671
2025-05-29 15:09:26.549,89589,7176,4170,50966,79674
2025-05-29 15:09:26.557,89599,7186,4173,50964,79682
2025-05-29 15:09:26.568,89604,7198,4177,50961,79712
2025-05-29 15:09:26.583,89611,7201,4191,50971,79708
2025-05-29 15:09:26.588,89616,7211,4184,50983,79720
2025-05-29 15:09:26.597,89620,7214,4185,50976,79718
2025-05-29 15:09:26.608,89639,7230,4192,50992,79741
2025-05-29 15:09:26.617,89643,7230,4198,50982,79753
2025-05-29 15:09:26.628,89643,7238,4194,50993,79758
2025-05-29 15:09:26.648,89652,7244,4201,50992,79763
2025-05-29 15:09:26.649,89679,7252,4206,51000,79778
2025-05-29 15:09:26.657,89672,7257,4209,50996,79782
2025-05-29 15:09:26.669,89677,7258,4210,50999,79796
2025-05-29 15:09:26.676,89685,7276,4211,51002,79803
2025-05-29 15:09:26.689,89681,7280,4213,51005,79811
2025-05-29 15:09:26.697,89706,7287,4221,51024,79830
2025-05-29 15:09:26.713,89712,7294,4226,51019,79840
2025-05-29 15:09:26.716,89722,7306,4222,51033,79842
2025-05-29 15:09:26.728,89715,7309,4230,51038,79860
2025-05-29 15:09:26.737,89736,7316,4237,51043,79859
2025-05-29 15:09:26.748,89738,7322,4233,51037,79874
2025-05-29 15:09:26.756,89748,7333,4232,51056,79890
2025-05-29 15:09:26.776,89763,7334,4240,51051,79897
2025-05-29 15:09:26.781,89768,7343,4245,51052,79905
2025-05-29 15:09:26.788,89779,7349,4250,51053,79916
2025-05-29 15:09:26.801,89774,7353,4254,51066,79920
2025-05-29 15:09:26.808,89774,7360,4255,51069,79922
2025-05-29 15:09:26.820,89755,7354,4246,51079,79930
2025-05-29 15:09:26.843,89732,7338,4254,51066,79904
2025-05-29 15:09:26.845,89708,7312,4250,51049,79881
2025-05-29 15:09:26.848,89676,7286,4251,51032,79841
2025-05-29 15:09:26.860,89656,7252,4229,51032,79825
2025-05-29 15:09:26.871,89634,7224,4229,51009,79794
2025-05-29 15:09:26.881,89628,7198,4219,51014,79779
2025-05-29 15:09:26.888,89602,7169,4203,51004,79762
2025-05-29 15:09:26.909,89575,7141,4194,51005,79732
2025-05-29 15:09:26.910,89578,7121,4191,50992,79727
2025-05-29 15:09:26.920,89568,7096,4183,50986,79705
2025-05-29 15:09:26.929,89551,7079,4175,50994,79701
2025-05-29 15:09:26.940,89551,7062,4166,50990,79689
2025-05-29 15:09:26.949,89540,7049,4169,50990,79670
2025-05-29 15:09:26.975,89535,7038,4156,50984,79667
2025-05-29 15:09:26.976,89525,7032,4154,50988,79662
2025-05-29 15:09:26.980,89528,7015,4150,50975,79648
2025-05-29 15:09:26.988,89518,7011,4146,50981,79646
2025-05-29 15:09:27.002,89512,6997,4148,50974,79631
2025-05-29 15:09:27.008,89503,6993,4141,50973,79632
2025-05-29 15:09:27.023,89505,6984,4139,50969,79619
2025-05-29 15:09:27.039,89482,6975,4132,50972,79620
2025-05-29 15:09:27.041,89489,6963,4128,50960,79601
2025-05-29 15:09:27.048,89482,6964,4122,50968,79609
2025-05-29 15:09:27.061,89488,6957,4125,50970,79597
2025-05-29 15:09:27.065,89488,6957,4125,50970,79597
2025-05-29 15:09:27.068,89493,6951,4120,50968,79604
2025-05-29 15:09:27.080,89493,6958,4123,50965,79603
2025-05-29 15:09:27.102,89493,6949,4123,50966,79607
2025-05-29 15:09:27.103,89501,6945,4124,50959,79599
2025-05-29 15:09:27.108,89486,6949,4118,50967,79604
2025-05-29 15:09:27.121,89484,6942,4120,50959,79591
2025-05-29 15:09:27.128,89500,6950,4131,50967,79605
2025-05-29 15:09:27.140,89495,6942,4121,50958,79590
2025-05-29 15:09:27.149,89483,6941,4122,50958,79603
2025-05-29 15:09:27.167,89485,6936,4120,50961,79593
2025-05-29 15:09:27.169,89486,6934,4122,50959,79589
2025-05-29 15:09:27.180,89483,6929,4118,50958,79587
2025-05-29 15:09:27.193,89472,6931,4118,50960,79590
2025-05-29 15:09:27.201,89489,6934,4122,50958,79567
2025-05-29 15:09:27.212,89496,6927,4121,50955,79581
2025-05-29 15:09:27.237,89491,6933,4119,50952,79579
2025-05-29 15:09:27.239,89489,6939,4118,50951,79572
2025-05-29 15:09:27.240,89481,6928,4117,50960,79582
2025-05-29 15:09:27.253,89492,6935,4119,50960,79584
2025-05-29 15:09:27.260,89506,6937,4120,50962,79581
2025-05-29 15:09:27.273,89500,6936,4121,50955,79576
2025-05-29 15:09:27.280,89514,6941,4125,50960,79574
2025-05-29 15:09:27.301,89506,6941,4127,50955,79587
2025-05-29 15:09:27.302,89514,6945,4127,50953,79583
2025-05-29 15:09:27.312,89518,6948,4125,50966,79599
2025-05-29 15:09:27.321,89523,6957,4126,50963,79593
2025-05-29 15:09:27.333,89526,6959,4138,50968,79590
2025-05-29 15:09:27.341,89535,6959,4128,50967,79602
2025-05-29 15:09:27.367,89531,6964,4132,50967,79602
2025-05-29 15:09:27.368,89526,6970,4134,50962,79607
2025-05-29 15:09:27.372,89535,6968,4132,50961,79601
2025-05-29 15:09:27.381,89540,6971,4141,50964,79606
2025-05-29 15:09:27.393,89540,6983,4137,50966,79607
2025-05-29 15:09:27.401,89557,6983,4137,50967,79603
2025-05-29 15:09:27.413,89549,6988,4141,50966,79624
2025-05-29 15:09:27.433,89559,6991,4147,50962,79619
2025-05-29 15:09:27.435,89545,6997,4142,50975,79636
2025-05-29 15:09:27.440,89563,7003,4147,50961,79621
2025-05-29 15:09:27.452,89565,7005,4153,50964,79641
2025-05-29 15:09:27.460,89564,7015,4152,50974,79643
2025-05-29 15:09:27.472,89564,7011,4152,50970,79642
2025-05-29 15:09:27.480,89571,7011,4150,50971,79652
2025-05-29 15:09:27.496,89572,7025,4156,50972,79640
2025-05-29 15:09:27.500,89588,7027,4154,50961,79650
2025-05-29 15:09:27.512,89580,7035,4162,50958,79650
2025-05-29 15:09:27.521,89592,7034,4164,50952,79648
2025-05-29 15:09:27.532,89597,7042,4165,50952,79660
2025-05-29 15:09:27.540,89599,7048,4171,50956,79657
2025-05-29 15:09:27.564,89607,7055,4170,50952,79662
2025-05-29 15:09:27.565,89605,7060,4173,50967,79671
2025-05-29 15:09:27.573,89624,7066,4180,50960,79677
2025-05-29 15:09:27.580,89628,7074,4179,50970,79687
2025-05-29 15:09:27.593,89634,7080,4187,50977,79691
2025-05-29 15:09:27.604,89635,7083,4187,50976,79702
2025-05-29 15:09:27.612,89653,7086,4191,50978,79707
2025-05-29 15:09:27.632,89668,7100,4189,50973,79706
2025-05-29 15:09:27.634,89672,7097,4191,50968,79715
2025-05-29 15:09:27.642,89691,7106,4193,50977,79725
2025-05-29 15:09:27.652,89692,7114,4198,50985,79740
2025-05-29 15:09:27.664,89713,7124,4203,50990,79746
2025-05-29 15:09:27.672,89712,7122,4203,50993,79743
2025-05-29 15:09:27.696,89710,7134,4210,50985,79743
2025-05-29 15:09:27.697,89722,7138,4210,50987,79750
2025-05-29 15:09:27.705,89713,7145,4212,50992,79750
2025-05-29 15:09:27.713,89726,7149,4215,50982,79744
2025-05-29 15:09:27.724,89737,7146,4219,50987,79760
2025-05-29 15:09:27.732,89742,7159,4221,50994,79776
2025-05-29 15:09:27.744,89763,7165,4226,51004,79780
2025-05-29 15:09:27.759,89767,7174,4227,51005,79783
2025-05-29 15:09:27.765,89770,7180,4232,51002,79804
2025-05-29 15:09:27.773,89774,7183,4230,51001,79797
2025-05-29 15:09:27.784,89784,7197,4232,51004,79807
2025-05-29 15:09:27.792,89786,7196,4234,51002,79810
2025-05-29 15:09:27.805,89800,7203,4236,51006,79808
2025-05-29 15:09:27.825,89802,7206,4236,51009,79818
2025-05-29 15:09:27.826,89808,7212,4243,51011,79828
2025-05-29 15:09:27.833,89816,7220,4252,51014,79833
2025-05-29 15:09:27.845,89832,7214,4244,51013,79843
2025-05-29 15:09:27.853,89824,7232,4250,51013,79850
2025-05-29 15:09:27.864,89833,7238,4251,51031,79847
2025-05-29 15:09:27.873,89848,7244,4257,51023,79867
2025-05-29 15:09:27.896,89847,7246,4255,51023,79870
2025-05-29 15:09:27.898,89856,7259,4260,51020,79867
2025-05-29 15:09:27.905,89862,7262,4265,51023,79876
2025-05-29 15:09:27.912,89870,7267,4265,51028,79886
2025-05-29 15:09:27.925,89876,7270,4269,51031,79901
2025-05-29 15:09:27.933,89882,7281,4270,51026,79919
2025-05-29 15:09:27.944,89879,7289,4272,51037,79917
2025-05-29 15:09:27.961,89891,7289,4275,51047,79919
2025-05-29 15:09:27.964,89893,7300,4273,51033,79922
2025-05-29 15:09:27.972,89900,7305,4273,51033,79929
2025-05-29 15:09:27.985,89912,7313,4283,51043,79938
2025-05-29 15:09:27.992,89917,7317,4282,51036,79946
2025-05-29 15:09:28.004,89921,7320,4281,51061,79953
2025-05-29 15:09:28.024,89942,7334,4290,51056,79970
2025-05-29 15:09:28.026,89938,7340,4301,51072,79980
2025-05-29 15:09:28.034,89940,7343,4303,51069,79986
2025-05-29 15:09:28.044,89936,7345,4299,51069,79996
2025-05-29 15:09:28.053,89927,7352,4303,51075,80002
2025-05-29 15:09:28.064,89910,7352,4300,51061,79982
2025-05-29 15:09:28.072,89908,7354,4308,51039,79978
2025-05-29 15:09:28.087,89882,7340,4300,51029,79972
2025-05-29 15:09:28.097,89865,7352,4306,51012,79951
2025-05-29 15:09:28.104,89847,7327,4298,50985,79930
2025-05-29 15:09:28.116,89835,7334,4304,50950,79889
2025-05-29 15:09:28.124,89818,7333,4290,50925,79851
2025-05-29 15:09:28.136,89815,7333,4291,50881,79821
2025-05-29 15:09:28.152,89815,7341,4294,50864,79796
2025-05-29 15:09:28.156,89816,7351,4290,50888,79803
2025-05-29 15:09:28.164,89819,7356,4301,50893,79833
2025-05-29 15:09:28.177,89806,7368,4301,50925,79842
2025-05-29 15:09:28.184,89791,7373,4302,50940,79869
2025-05-29 15:09:28.196,89788,7385,4305,50979,79896
2025-05-29 15:09:28.215,89799,7395,4305,51024,79930
2025-05-29 15:09:28.217,89821,7402,4307,51062,79963
2025-05-29 15:09:28.225,89849,7418,4310,51115,79992
2025-05-29 15:09:28.237,89884,7428,4312,51159,80054
2025-05-29 15:09:28.244,89910,7441,4314,51210,80097
2025-05-29 15:09:28.256,89923,7446,4314,51249,80130
2025-05-29 15:09:28.280,89913,7446,4318,51296,80152
2025-05-29 15:09:28.282,89899,7432,4317,51304,80143
2025-05-29 15:09:28.284,89898,7417,4314,51306,80125
2025-05-29 15:09:28.297,89889,7389,4306,51317,80109
2025-05-29 15:09:28.305,89888,7371,4299,51326,80110
2025-05-29 15:09:28.317,89859,7346,4286,51342,80097
2025-05-29 15:09:28.324,89853,7323,4282,51361,80089
2025-05-29 15:09:28.345,89853,7302,4274,51370,80091
2025-05-29 15:09:28.346,89845,7290,4268,51390,80070
2025-05-29 15:09:28.357,89842,7274,4257,51399,80093
2025-05-29 15:09:28.364,89840,7249,4256,51409,80089
2025-05-29 15:09:28.378,89819,7239,4245,51401,80074
2025-05-29 15:09:28.385,89782,7226,4244,51376,80059
2025-05-29 15:09:28.408,89793,7209,4229,51363,80043
2025-05-29 15:09:28.409,89779,7207,4220,51367,80030
2025-05-29 15:09:28.417,89769,7192,4218,51378,80044
2025-05-29 15:09:28.424,89768,7177,4208,51392,80071
2025-05-29 15:09:28.437,89739,7166,4195,51395,80061
2025-05-29 15:09:28.445,89715,7151,4195,51380,80045
2025-05-29 15:09:28.457,89703,7140,4178,51353,80013
2025-05-29 15:09:28.475,89663,7123,4171,51324,79974
2025-05-29 15:09:28.477,89628,7105,4158,51295,79944
2025-05-29 15:09:28.488,89603,7096,4148,51259,79904
2025-05-29 15:09:28.497,89601,7089,4137,51224,79855
2025-05-29 15:09:28.509,89590,7079,4126,51185,79817
2025-05-29 15:09:28.517,89588,7076,4114,51176,79811
2025-05-29 15:09:28.541,89553,7063,4113,51174,79792
2025-05-29 15:09:28.542,89523,7062,4099,51110,79728
2025-05-29 15:09:28.548,89511,7050,4091,51048,79655
2025-05-29 15:09:28.556,89514,7060,4087,50995,79599
2025-05-29 15:09:28.568,89493,7056,4081,50959,79561
2025-05-29 15:09:28.576,89508,7060,4078,50888,79492
2025-05-29 15:09:28.589,89522,7057,4079,50870,79496
2025-05-29 15:09:28.605,89535,7065,4076,50862,79482
2025-05-29 15:09:28.608,89531,7057,4077,50887,79503
2025-05-29 15:09:28.617,89505,7051,4073,50870,79484
2025-05-29 15:09:28.629,89479,7062,4055,50834,79443
2025-05-29 15:09:28.637,89444,7048,4048,50815,79437
2025-05-29 15:09:28.649,89419,7051,4048,50830,79437
2025-05-29 15:09:28.670,89388,7055,4042,50794,79392
2025-05-29 15:09:28.671,89294,7044,4043,50709,79319
2025-05-29 15:09:28.673,89294,7044,4043,50709,79319
2025-05-29 15:09:28.676,89132,7035,4016,50550,79132
2025-05-29 15:09:28.688,89056,7029,4007,50481,79071
2025-05-29 15:09:28.696,88969,7015,3999,50450,79026
2025-05-29 15:09:28.708,88780,6975,3992,50384,78944
2025-05-29 15:09:28.716,88605,6934,3943,50283,78771
2025-05-29 15:09:28.734,88471,6918,3920,50191,78642
2025-05-29 15:09:28.737,88420,6943,3903,50119,78539
2025-05-29 15:09:28.748,88432,6974,3897,50113,78551
2025-05-29 15:09:28.757,88510,7006,3915,50195,78651
2025-05-29 15:09:28.768,88584,7018,3923,50292,78739
2025-05-29 15:09:28.776,88669,7036,3923,50385,78867
2025-05-29 15:09:28.798,88741,7048,3933,50523,79007
2025-05-29 15:09:28.799,88817,7073,3924,50656,79163
2025-05-29 15:09:28.808,88886,7087,3931,50797,79320
2025-05-29 15:09:28.817,88926,7101,3929,50905,79437
2025-05-29 15:09:28.828,88977,7123,3930,51003,79540
2025-05-29 15:09:28.837,88999,7139,3937,51065,79630
2025-05-29 15:09:28.862,89013,7173,3935,51116,79689
2025-05-29 15:09:28.864,89015,7177,3939,51135,79733
2025-05-29 15:09:28.869,89002,7203,3929,51129,79733
2025-05-29 15:09:28.880,89018,7218,3927,51119,79762
2025-05-29 15:09:28.888,89079,7251,3942,51138,79781
2025-05-29 15:09:28.901,89122,7269,3947,51159,79848
2025-05-29 15:09:28.908,89190,7309,3953,51231,79934
2025-05-29 15:09:28.927,89239,7327,3964,51283,79992
2025-05-29 15:09:28.928,89309,7349,3973,51349,80073
2025-05-29 15:09:28.941,89390,7371,3988,51434,80179
2025-05-29 15:09:28.948,89496,7403,3984,51531,80267
2025-05-29 15:09:28.960,89593,7432,3995,51653,80412
2025-05-29 15:09:28.969,89731,7470,4006,51790,80565
2025-05-29 15:09:28.990,89868,7510,4022,51967,80748
2025-05-29 15:09:28.991,90005,7555,4033,52137,80906
2025-05-29 15:09:29.000,90113,7587,4054,52287,81088
2025-05-29 15:09:29.008,90181,7622,4062,52397,81210
2025-05-29 15:09:29.020,90194,7649,4087,52467,81312
2025-05-29 15:09:29.029,90233,7679,4091,52490,81347
2025-05-29 15:09:29.054,90237,7706,4106,52485,81363
2025-05-29 15:09:29.055,90248,7735,4118,52445,81350
2025-05-29 15:09:29.060,90266,7756,4133,52371,81303
2025-05-29 15:09:29.069,90269,7774,4151,52302,81277
2025-05-29 15:09:29.081,90289,7793,4155,52215,81194
2025-05-29 15:09:29.088,90296,7804,4172,52104,81116
2025-05-29 15:09:29.100,90322,7818,4170,52023,81068
2025-05-29 15:09:29.118,90349,7833,4196,51969,81055
2025-05-29 15:09:29.121,90360,7830,4202,51947,81051
2025-05-29 15:09:29.129,90362,7840,4219,51927,81048
2025-05-29 15:09:29.141,90363,7849,4223,51913,81038
2025-05-29 15:09:29.148,90359,7852,4230,51891,81039
2025-05-29 15:09:29.161,90345,7855,4234,51885,81050
2025-05-29 15:09:29.182,90356,7866,4242,51874,81040
2025-05-29 15:09:29.183,90359,7873,4232,51879,81066
2025-05-29 15:09:29.189,90361,7874,4258,51875,81072
2025-05-29 15:09:29.200,90350,7873,4256,51864,81066
2025-05-29 15:09:29.209,90358,7887,4263,51844,81068
2025-05-29 15:09:29.221,90352,7877,4265,51836,81076
2025-05-29 15:09:29.228,90347,7877,4250,51825,81065
2025-05-29 15:09:29.248,90333,7885,4269,51808,81047
2025-05-29 15:09:29.249,90346,7893,4277,51806,81065
2025-05-29 15:09:29.261,90330,7895,4268,51799,81064
2025-05-29 15:09:29.272,90325,7901,4273,51800,81071
2025-05-29 15:09:29.280,90329,7908,4286,51812,81083
2025-05-29 15:09:29.288,90305,7913,4277,51790,81077
2025-05-29 15:09:29.314,90296,7912,4286,51780,81060
2025-05-29 15:09:29.316,90283,7905,4275,51776,81074
2025-05-29 15:09:29.321,90256,7911,4290,51763,81046
2025-05-29 15:09:29.329,90243,7926,4284,51748,81030
2025-05-29 15:09:29.340,90223,7925,4287,51746,81042
2025-05-29 15:09:29.349,90231,7920,4283,51743,81048
2025-05-29 15:09:29.359,90219,7928,4288,51734,81047
2025-05-29 15:09:29.378,90200,7931,4289,51739,81039
2025-05-29 15:09:29.380,90183,7924,4294,51742,81032
2025-05-29 15:09:29.392,90176,7936,4285,51727,81042
2025-05-29 15:09:29.400,90162,7940,4287,51730,81038
2025-05-29 15:09:29.412,90157,7947,4286,51734,81052
2025-05-29 15:09:29.420,90147,7943,4289,51718,81039
2025-05-29 15:09:29.443,90149,7956,4292,51719,81052
2025-05-29 15:09:29.444,90157,7963,4286,51728,81063
2025-05-29 15:09:29.452,90176,7960,4292,51740,81075
2025-05-29 15:09:29.460,90185,7963,4288,51729,81107
2025-05-29 15:09:29.472,90190,7978,4283,51754,81103
2025-05-29 15:09:29.480,90208,7983,4295,51755,81137
2025-05-29 15:09:29.506,90205,7994,4294,51760,81133
2025-05-29 15:09:29.507,90210,7999,4293,51756,81147
2025-05-29 15:09:29.512,90220,7996,4298,51761,81157
2025-05-29 15:09:29.520,90219,8002,4307,51770,81168
2025-05-29 15:09:29.532,90216,8003,4296,51772,81165
2025-05-29 15:09:29.540,90208,8007,4296,51778,81176
2025-05-29 15:09:29.553,90209,8016,4295,51785,81178
2025-05-29 15:09:29.572,90222,8023,4306,51793,81215
2025-05-29 15:09:29.574,90230,8024,4297,51789,81214
2025-05-29 15:09:29.583,90216,8030,4298,51792,81211
2025-05-29 15:09:29.593,90204,8030,4295,51782,81209
2025-05-29 15:09:29.600,90194,8031,4295,51778,81213
2025-05-29 15:09:29.612,90195,8036,4299,51781,81214
2025-05-29 15:09:29.620,90186,8041,4300,51773,81204
2025-05-29 15:09:29.637,90173,8035,4292,51768,81210
2025-05-29 15:09:29.640,90145,8031,4292,51769,81185
2025-05-29 15:09:29.653,90110,8012,4287,51760,81164
2025-05-29 15:09:29.661,90089,7998,4279,51751,81150
2025-05-29 15:09:29.673,90069,7979,4268,51743,81130
2025-05-29 15:09:29.681,90041,7956,4261,51729,81098
2025-05-29 15:09:29.703,90028,7939,4248,51733,81096
2025-05-29 15:09:29.705,90003,7918,4229,51730,81072
2025-05-29 15:09:29.714,89984,7897,4232,51716,81043
2025-05-29 15:09:29.720,89972,7867,4217,51704,81064
2025-05-29 15:09:29.733,89969,7849,4207,51717,81031
2025-05-29 15:09:29.741,89946,7834,4197,51716,81026
2025-05-29 15:09:29.752,89948,7819,4190,51733,81015
2025-05-29 15:09:29.769,89938,7803,4186,51722,81008
2025-05-29 15:09:29.772,89928,7800,4170,51713,81004
2025-05-29 15:09:29.780,89919,7784,4162,51709,81007
2025-05-29 15:09:29.793,89907,7783,4165,51723,80991
2025-05-29 15:09:29.800,89921,7769,4158,51720,80984
2025-05-29 15:09:29.813,89914,7762,4157,51713,81007
2025-05-29 15:09:29.834,89905,7755,4145,51722,80983
2025-05-29 15:09:29.835,89902,7749,4149,51713,80986
2025-05-29 15:09:29.844,89898,7746,4148,51705,80977
2025-05-29 15:09:29.852,89896,7738,4130,51709,80982
2025-05-29 15:09:29.864,89896,7748,4143,51719,80993
2025-05-29 15:09:29.872,89910,7739,4132,51723,80985
2025-05-29 15:09:29.899,89892,7734,4129,51728,80995
2025-05-29 15:09:29.900,89901,7745,4128,51720,80992
2025-05-29 15:09:29.904,89897,7726,4116,51719,80993
2025-05-29 15:09:29.913,89881,7736,4124,51726,80988
2025-05-29 15:09:29.924,89876,7719,4116,51713,80983
2025-05-29 15:09:29.932,89885,7730,4114,51720,80980
2025-05-29 15:09:29.944,89874,7717,4107,51715,80977
2025-05-29 15:09:29.967,89891,7716,4108,51719,80995
2025-05-29 15:09:29.969,89887,7708,4112,51721,80995
2025-05-29 15:09:29.972,89880,7706,4111,51728,80985
2025-05-29 15:09:29.985,89889,7710,4100,51720,80971
2025-05-29 15:09:29.993,89866,7692,4099,51719,80983
2025-05-29 15:09:30.004,89872,7698,4103,51714,80958
2025-05-29 15:09:30.014,89860,7700,4093,51716,80961
2025-05-29 15:09:30.033,89874,7691,4096,51712,80985
2025-05-29 15:09:30.035,89873,7689,4090,51719,80972
2025-05-29 15:09:30.044,89875,7689,4092,51732,80991
2025-05-29 15:09:30.052,89877,7687,4094,51730,80992
2025-05-29 15:09:30.064,89888,7688,4093,51738,80990
2025-05-29 15:09:30.076,89885,7689,4090,51727,80997
2025-05-29 15:09:30.098,89892,7690,4081,51742,81004
2025-05-29 15:09:30.099,89880,7689,4092,51735,80995
2025-05-29 15:09:30.104,89891,7687,4088,51750,80999
2025-05-29 15:09:30.112,89888,7699,4084,51748,80990
2025-05-29 15:09:30.124,89922,7697,4099,51745,81013
2025-05-29 15:09:30.137,89914,7691,4084,51757,81004
2025-05-29 15:09:30.144,89910,7694,4087,51753,81019
2025-05-29 15:09:30.162,89918,7697,4081,51740,81025
2025-05-29 15:09:30.164,89914,7706,4086,51746,81026
2025-05-29 15:09:30.176,89909,7714,4088,51747,81031
2025-05-29 15:09:30.185,89897,7713,4093,51750,81038
2025-05-29 15:09:30.197,89927,7713,4085,51758,81039
2025-05-29 15:09:30.204,89933,7710,4090,51754,81036
2025-05-29 15:09:30.227,89927,7711,4091,51760,81048
2025-05-29 15:09:30.228,89909,7715,4087,51763,81035
2025-05-29 15:09:30.237,89910,7710,4081,51752,81039
2025-05-29 15:09:30.245,89910,7713,4089,51748,81041
2025-05-29 15:09:30.256,89901,7727,4079,51741,81031
2025-05-29 15:09:30.265,89909,7729,4089,51738,81043
2025-05-29 15:09:30.294,89900,7736,4083,51748,81034
2025-05-29 15:09:30.296,89900,7736,4083,51748,81034
2025-05-29 15:09:30.298,89904,7742,4096,51749,81060
2025-05-29 15:09:30.300,89914,7737,4096,51758,81053
2025-05-29 15:09:30.305,89927,7739,4094,51762,81062
2025-05-29 15:09:30.317,89920,7747,4092,51759,81045
2025-05-29 15:09:30.324,89919,7740,4082,51754,81065
2025-05-29 15:09:30.336,89917,7751,4089,51761,81072
2025-05-29 15:09:30.359,89929,7750,4093,51767,81075
2025-05-29 15:09:30.361,89917,7761,4091,51773,81059
2025-05-29 15:09:30.365,89934,7751,4091,51757,81078
2025-05-29 15:09:30.376,89925,7756,4091,51759,81076
2025-05-29 15:09:30.385,89928,7762,4093,51760,81081
2025-05-29 15:09:30.396,89927,7766,4102,51767,81099
2025-05-29 15:09:30.404,89929,7766,4093,51769,81089
2025-05-29 15:09:30.423,89932,7772,4092,51778,81107
2025-05-29 15:09:30.425,89944,7782,4098,51767,81101
2025-05-29 15:09:30.437,89938,7785,4098,51769,81121
2025-05-29 15:09:30.445,89957,7792,4093,51772,81117
2025-05-29 15:09:30.456,89952,7790,4108,51775,81130
2025-05-29 15:09:30.464,89958,7802,4094,51773,81127
2025-05-29 15:09:30.493,89968,7802,4104,51785,81127
2025-05-29 15:09:30.494,89960,7798,4108,51776,81134
2025-05-29 15:09:30.496,89962,7813,4106,51769,81127
2025-05-29 15:09:30.505,89963,7807,4112,51775,81126
2025-05-29 15:09:30.517,89964,7815,4112,51779,81134
2025-05-29 15:09:30.525,89970,7809,4109,51776,81130
2025-05-29 15:09:30.537,89982,7826,4112,51781,81155
2025-05-29 15:09:30.558,89974,7830,4118,51780,81164
2025-05-29 15:09:30.559,90000,7841,4115,51790,81166
2025-05-29 15:09:30.568,89974,7833,4116,51783,81163
2025-05-29 15:09:30.576,89963,7826,4126,51777,81171
2025-05-29 15:09:30.589,89931,7833,4111,51780,81151
2025-05-29 15:09:30.597,89917,7819,4117,51759,81118
2025-05-29 15:09:30.624,89884,7792,4098,51748,81105
2025-05-29 15:09:30.625,89841,7767,4090,51738,81072
2025-05-29 15:09:30.628,89823,7747,4082,51714,81031
2025-05-29 15:09:30.637,89788,7709,4086,51716,80999
2025-05-29 15:09:30.648,89764,7691,4059,51717,80981
2025-05-29 15:09:30.656,89720,7650,4054,51694,80969
2025-05-29 15:09:30.668,89704,7623,4037,51696,80943
2025-05-29 15:09:30.690,89694,7599,4031,51680,80919
2025-05-29 15:09:30.691,89658,7579,4020,51683,80877
2025-05-29 15:09:30.697,89649,7557,4004,51664,80878
2025-05-29 15:09:30.708,89634,7543,4005,51677,80857
2025-05-29 15:09:30.717,89615,7515,3989,51661,80835
2025-05-29 15:09:30.728,89597,7498,3991,51652,80817
2025-05-29 15:09:30.736,89576,7478,3970,51664,80809
2025-05-29 15:09:30.754,89570,7472,3963,51647,80800
2025-05-29 15:09:30.757,89554,7460,3958,51642,80790
2025-05-29 15:09:30.768,89562,7442,3956,51632,80773
2025-05-29 15:09:30.777,89531,7431,3949,51636,80747
2025-05-29 15:09:30.788,89534,7412,3952,51628,80736
2025-05-29 15:09:30.796,89521,7399,3939,51618,80719
2025-05-29 15:09:30.819,89512,7383,3934,51620,80715
2025-05-29 15:09:30.820,89511,7375,3927,51616,80711
2025-05-29 15:09:30.828,89493,7365,3922,51612,80699
2025-05-29 15:09:30.837,89487,7366,3926,51617,80699
2025-05-29 15:09:30.848,89493,7363,3922,51603,80695
2025-05-29 15:09:30.857,89494,7346,3910,51616,80684
2025-05-29 15:09:30.884,89485,7349,3919,51610,80690
2025-05-29 15:09:30.886,89475,7349,3918,51609,80676
2025-05-29 15:09:30.889,89467,7341,3909,51596,80658
2025-05-29 15:09:30.896,89459,7339,3914,51594,80645
2025-05-29 15:09:30.909,89469,7330,3901,51588,80642
2025-05-29 15:09:30.917,89464,7325,3910,51587,80640
2025-05-29 15:09:30.929,89451,7317,3897,51582,80645
2025-05-29 15:09:30.949,89449,7324,3900,51588,80635
2025-05-29 15:09:30.950,89452,7306,3902,51588,80634
2025-05-29 15:09:30.957,89437,7306,3900,51578,80634
2025-05-29 15:09:30.969,89441,7302,3897,51582,80643
2025-05-29 15:09:30.976,89445,7301,3896,51585,80614
2025-05-29 15:09:30.989,89433,7289,3885,51587,80613
2025-05-29 15:09:30.996,89433,7288,3884,51581,80598
2025-05-29 15:09:31.013,89431,7291,3896,51576,80602
2025-05-29 15:09:31.021,89415,7279,3884,51561,80601
2025-05-29 15:09:31.029,89422,7278,3890,51565,80596
2025-05-29 15:09:31.040,89418,7286,3891,51560,80591
2025-05-29 15:09:31.048,89419,7286,3891,51560,80579
2025-05-29 15:09:31.060,89406,7278,3888,51551,80585
2025-05-29 15:09:31.083,89408,7278,3888,51551,80579
2025-05-29 15:09:31.085,89400,7283,3889,51549,80583
2025-05-29 15:09:31.089,89404,7282,3889,51548,80574
2025-05-29 15:09:31.100,89404,7286,3894,51542,80567
2025-05-29 15:09:31.108,89409,7282,3882,51550,80577
2025-05-29 15:09:31.120,89419,7287,3900,51542,80578
2025-05-29 15:09:31.129,89420,7288,3890,51547,80581
2025-05-29 15:09:31.149,89423,7291,3889,51539,80577
2025-05-29 15:09:31.150,89430,7296,3894,51542,80575
2025-05-29 15:09:31.160,89396,7302,3890,51551,80581
2025-05-29 15:09:31.168,89439,7290,3895,51541,80572
2025-05-29 15:09:31.180,89434,7304,3889,51541,80593
2025-05-29 15:09:31.189,89428,7311,3899,51552,80579
2025-05-29 15:09:31.213,89439,7311,3897,51542,80583
2025-05-29 15:09:31.215,89438,7304,3902,51542,80595
2025-05-29 15:09:31.221,89438,7308,3896,51546,80592
2025-05-29 15:09:31.228,89448,7308,3895,51546,80577
2025-05-29 15:09:31.241,89448,7314,3909,51549,80598
2025-05-29 15:09:31.248,89452,7330,3894,51551,80597
2025-05-29 15:09:31.260,89445,7318,3905,51554,80610
2025-05-29 15:09:31.278,89459,7324,3905,51549,80604
2025-05-29 15:09:31.280,89455,7329,3907,51558,80607
2025-05-29 15:09:31.289,89472,7333,3904,51553,80612
2025-05-29 15:09:31.301,89460,7335,3911,51556,80615
2025-05-29 15:09:31.309,89464,7334,3916,51545,80597
2025-05-29 15:09:31.320,89464,7339,3914,51551,80607
2025-05-29 15:09:31.346,89460,7339,3915,51547,80625
2025-05-29 15:09:31.347,89475,7352,3916,51555,80612
2025-05-29 15:09:31.349,89479,7355,3919,51551,80614
2025-05-29 15:09:31.360,89468,7350,3919,51558,80627
2025-05-29 15:09:31.369,89481,7363,3919,51554,80634
2025-05-29 15:09:31.380,89497,7362,3918,51553,80636
2025-05-29 15:09:31.388,89492,7373,3922,51556,80638
2025-05-29 15:09:31.411,89495,7368,3932,51565,80638
2025-05-29 15:09:31.412,89499,7382,3924,51560,80653
2025-05-29 15:09:31.420,89507,7381,3933,51548,80656
2025-05-29 15:09:31.429,89513,7396,3929,51567,80663
2025-05-29 15:09:31.440,89518,7396,3933,51566,80664
2025-05-29 15:09:31.448,89529,7402,3933,51568,80695
2025-05-29 15:09:31.460,89526,7399,3931,51556,80676
2025-05-29 15:09:31.478,89533,7412,3942,51563,80697
2025-05-29 15:09:31.481,89549,7424,3940,51570,80692
2025-05-29 15:09:31.493,89546,7421,3947,51581,80702
2025-05-29 15:09:31.500,89558,7424,3952,51581,80700
2025-05-29 15:09:31.513,89566,7430,3949,51576,80701
2025-05-29 15:09:31.520,89571,7438,3953,51587,80713
2025-05-29 15:09:31.542,89561,7435,3948,51578,80727
2025-05-29 15:09:31.543,89583,7436,3946,51589,80741
2025-05-29 15:09:31.552,89594,7452,3963,51593,80721
2025-05-29 15:09:31.561,89586,7459,3963,51592,80732
2025-05-29 15:09:31.572,89593,7462,3957,51587,80750
2025-05-29 15:09:31.580,89598,7469,3963,51592,80767
2025-05-29 15:09:31.608,89614,7475,3974,51600,80766
2025-05-29 15:09:31.610,89627,7481,3968,51608,80769
2025-05-29 15:09:31.612,89628,7489,3971,51593,80779
2025-05-29 15:09:31.621,89627,7486,3974,51616,80795
2025-05-29 15:09:31.632,89637,7499,3981,51609,80783
2025-05-29 15:09:31.640,89648,7499,3983,51606,80804
2025-05-29 15:09:31.652,89641,7509,3977,51610,80811
2025-05-29 15:09:31.673,89664,7517,3989,51623,80815
2025-05-29 15:09:31.674,89646,7522,3984,51607,80813
2025-05-29 15:09:31.680,89647,7530,3988,51604,80807
2025-05-29 15:09:31.692,89669,7538,3996,51621,80821
2025-05-29 15:09:31.701,89672,7549,3990,51627,80851
2025-05-29 15:09:31.712,89681,7551,4002,51630,80836
2025-05-29 15:09:31.721,89690,7562,3995,51641,80859
2025-05-29 15:09:31.739,89693,7569,3998,51643,80866
2025-05-29 15:09:31.741,89697,7571,4010,51642,80881
2025-05-29 15:09:31.753,89709,7573,4012,51644,80890
2025-05-29 15:09:31.760,89719,7589,4009,51647,80900
2025-05-29 15:09:31.773,89715,7594,4016,51654,80903
2025-05-29 15:09:31.781,89728,7595,4022,51648,80893
2025-05-29 15:09:31.823,89730,7607,4021,51642,80904
2025-05-29 15:09:31.824,89733,7608,4027,51658,80915
2025-05-29 15:09:31.825,89747,7619,4027,51656,80929
2025-05-29 15:09:31.828,89752,7624,4020,51663,80929
2025-05-29 15:09:31.832,89766,7633,4025,51663,80961
2025-05-29 15:09:31.845,89762,7641,4028,51672,80957
2025-05-29 15:09:31.853,89776,7648,4026,51673,80959
2025-05-29 15:09:31.868,89788,7650,4032,51689,80959
2025-05-29 15:09:31.873,89799,7653,4025,51681,80976
2025-05-29 15:09:31.884,89792,7665,4043,51686,80978
2025-05-29 15:09:31.888,89792,7665,4043,51686,80978
2025-05-29 15:09:31.893,89819,7676,4053,51690,81000
2025-05-29 15:09:31.905,89824,7688,4049,51683,80999
2025-05-29 15:09:31.912,89823,7692,4049,51683,81012
2025-05-29 15:09:31.934,89827,7696,4056,51689,81010
2025-05-29 15:09:31.936,89828,7707,4049,51694,81037
2025-05-29 15:09:31.945,89843,7716,4058,51697,81050
2025-05-29 15:09:31.953,89839,7726,4060,51707,81049
2025-05-29 15:09:31.964,89859,7723,4065,51706,81047
2025-05-29 15:09:31.972,89854,7727,4069,51709,81061
2025-05-29 15:09:31.999,89832,7734,4068,51701,81057
2025-05-29 15:09:32.000,89827,7727,4067,51705,81042
2025-05-29 15:09:32.004,89804,7718,4064,51694,81046
2025-05-29 15:09:32.013,89757,7715,4063,51674,81009
2025-05-29 15:09:32.024,89733,7699,4062,51664,80967
2025-05-29 15:09:32.033,89691,7678,4047,51645,80950
2025-05-29 15:09:32.044,89645,7648,4032,51638,80918
2025-05-29 15:09:32.062,89616,7617,4030,51628,80877
2025-05-29 15:09:32.064,89581,7591,4017,51619,80837
2025-05-29 15:09:32.072,89564,7554,4002,51601,80811
2025-05-29 15:09:32.085,89530,7527,3990,51591,80781
2025-05-29 15:09:32.092,89516,7501,3975,51587,80759
2025-05-29 15:09:32.105,89490,7477,3965,51577,80720
2025-05-29 15:09:32.126,89485,7452,3957,51567,80713
2025-05-29 15:09:32.127,89462,7438,3955,51572,80701
2025-05-29 15:09:32.132,89472,7423,3943,51561,80687
2025-05-29 15:09:32.144,89443,7405,3939,51559,80643
2025-05-29 15:09:32.153,89432,7392,3923,51557,80663
2025-05-29 15:09:32.164,89413,7374,3921,51539,80632
2025-05-29 15:09:32.172,89397,7366,3920,51539,80621
2025-05-29 15:09:32.193,89386,7353,3910,51542,80617
2025-05-29 15:09:32.194,89369,7332,3912,51515,80581
2025-05-29 15:09:32.205,89361,7326,3903,51527,80579
2025-05-29 15:09:32.213,89336,7304,3891,51510,80569
2025-05-29 15:09:32.225,89337,7294,3902,51506,80567
2025-05-29 15:09:32.236,89335,7288,3893,51502,80541
2025-05-29 15:09:32.257,89334,7275,3881,51508,80543
2025-05-29 15:09:32.258,89337,7269,3884,51510,80534
2025-05-29 15:09:32.265,89320,7260,3880,51510,80527
2025-05-29 15:09:32.277,89322,7260,3874,51504,80525
2025-05-29 15:09:32.284,89332,7261,3874,51503,80519
2025-05-29 15:09:32.296,89322,7252,3873,51494,80507
2025-05-29 15:09:32.305,89327,7245,3882,51489,80505
2025-05-29 15:09:32.322,89298,7239,3868,51492,80483
2025-05-29 15:09:32.324,89306,7234,3875,51472,80475
2025-05-29 15:09:32.336,89308,7228,3869,51485,80470
2025-05-29 15:09:32.345,89316,7226,3869,51462,80470
2025-05-29 15:09:32.356,89296,7220,3868,51467,80455
2025-05-29 15:09:32.365,89301,7213,3866,51458,80444
2025-05-29 15:09:32.388,89287,7213,3863,51464,80456
2025-05-29 15:09:32.389,89281,7212,3860,51467,80436
2025-05-29 15:09:32.396,89280,7212,3860,51465,80444
2025-05-29 15:09:32.405,89289,7201,3861,51461,80432
2025-05-29 15:09:32.416,89285,7198,3856,51457,80438
2025-05-29 15:09:32.424,89284,7191,3857,51457,80434
2025-05-29 15:09:32.437,89263,7201,3857,51458,80425
2025-05-29 15:09:32.454,89281,7189,3855,51457,80422
2025-05-29 15:09:32.457,89269,7209,3861,51441,80431
2025-05-29 15:09:32.466,89262,7192,3857,51444,80417
2025-05-29 15:09:32.477,89277,7209,3855,51432,80413
2025-05-29 15:09:32.485,89280,7191,3858,51437,80422
2025-05-29 15:09:32.496,89264,7206,3858,51446,80416
2025-05-29 15:09:32.520,89274,7201,3861,51431,80428
2025-05-29 15:09:32.521,89274,7208,3865,51445,80425
2025-05-29 15:09:32.525,89289,7193,3862,51452,80418
2025-05-29 15:09:32.537,89276,7194,3875,51437,80424
2025-05-29 15:09:32.544,89299,7204,3865,51439,80419
2025-05-29 15:09:32.557,89293,7196,3859,51444,80418
2025-05-29 15:09:32.564,89293,7195,3868,51437,80435
2025-05-29 15:09:32.586,89298,7195,3870,51442,80425
2025-05-29 15:09:32.587,89283,7198,3859,51437,80419
2025-05-29 15:09:32.597,89292,7198,3869,51438,80430
2025-05-29 15:09:32.605,89295,7204,3869,51439,80420
2025-05-29 15:09:32.617,89298,7209,3875,51433,80423
2025-05-29 15:09:32.625,89293,7206,3874,51436,80414
2025-05-29 15:09:32.652,89302,7215,3870,51441,80436
2025-05-29 15:09:32.654,89306,7221,3883,51441,80445
2025-05-29 15:09:32.656,89316,7228,3881,51442,80463
2025-05-29 15:09:32.664,89320,7235,3882,51449,80447
2025-05-29 15:09:32.677,89325,7232,3872,51446,80456
2025-05-29 15:09:32.688,89336,7242,3888,51448,80442
2025-05-29 15:09:32.696,89326,7241,3887,51452,80457
2025-05-29 15:09:32.717,89327,7252,3886,51450,80447
2025-05-29 15:09:32.718,89348,7243,3886,51448,80466
2025-05-29 15:09:32.729,89357,7261,3889,51458,80459
2025-05-29 15:09:32.737,89351,7254,3890,51449,80471
2025-05-29 15:09:32.749,89350,7268,3894,51455,80468
2025-05-29 15:09:32.756,89363,7261,3889,51459,80484
2025-05-29 15:09:32.782,89372,7269,3894,51448,80489
2025-05-29 15:09:32.784,89374,7267,3902,51456,80485
2025-05-29 15:09:32.788,89372,7274,3899,51458,80495
2025-05-29 15:09:32.797,89385,7277,3903,51471,80498
2025-05-29 15:09:32.809,89389,7289,3900,51459,80493
2025-05-29 15:09:32.817,89396,7286,3906,51456,80494
2025-05-29 15:09:32.829,89402,7291,3917,51466,80504
2025-05-29 15:09:32.846,89417,7298,3911,51469,80522
2025-05-29 15:09:32.848,89418,7310,3924,51455,80525
2025-05-29 15:09:32.856,89413,7322,3917,51473,80517
2025-05-29 15:09:32.868,89428,7320,3928,51476,80537
2025-05-29 15:09:32.876,89431,7318,3923,51479,80548
2025-05-29 15:09:32.889,89441,7322,3931,51472,80550
2025-05-29 15:09:32.912,89441,7322,3931,51472,80550
2025-05-29 15:09:32.913,89445,7329,3924,51474,80563
2025-05-29 15:09:32.917,89445,7342,3926,51489,80540
2025-05-29 15:09:32.928,89453,7342,3931,51482,80561
2025-05-29 15:09:32.937,89468,7348,3917,51481,80577
2025-05-29 15:09:32.949,89458,7348,3938,51492,80587
2025-05-29 15:09:32.957,89469,7354,3931,51486,80590
2025-05-29 15:09:32.976,89484,7367,3932,51496,80586
2025-05-29 15:09:32.978,89475,7381,3925,51492,80607
2025-05-29 15:09:32.988,89487,7382,3931,51489,80612
2025-05-29 15:09:32.996,89495,7397,3941,51498,80606
2025-05-29 15:09:33.008,89500,7387,3930,51507,80616
2025-05-29 15:09:33.016,89504,7402,3947,51508,80613
2025-05-29 15:09:33.046,89510,7409,3943,51505,80639
2025-05-29 15:09:33.049,89529,7410,3954,51509,80637
2025-05-29 15:09:33.050,89525,7406,3956,51511,80642
2025-05-29 15:09:33.057,89534,7418,3964,51512,80655
2025-05-29 15:09:33.069,89570,7429,3968,51516,80660
2025-05-29 15:09:33.077,89571,7441,3969,51518,80684
2025-05-29 15:09:33.088,89561,7444,3988,51530,80685
2025-05-29 15:09:33.092,89561,7444,3988,51530,80685
2025-05-29 15:09:33.111,89574,7464,3989,51535,80709
2025-05-29 15:09:33.112,89579,7463,3981,51534,80704
2025-05-29 15:09:33.116,89590,7470,4000,51534,80737
2025-05-29 15:09:33.129,89608,7479,3989,51531,80718
2025-05-29 15:09:33.138,89604,7480,4002,51547,80721
2025-05-29 15:09:33.148,89621,7496,3992,51548,80740
2025-05-29 15:09:33.159,89622,7500,3997,51560,80752
2025-05-29 15:09:33.181,89630,7514,4000,51555,80750
2025-05-29 15:09:33.182,89642,7512,3999,51560,80778
2025-05-29 15:09:33.189,89655,7517,4003,51567,80781
2025-05-29 15:09:33.200,89659,7529,4004,51569,80788
2025-05-29 15:09:33.209,89678,7537,4008,51563,80810
2025-05-29 15:09:33.220,89679,7539,4013,51587,80800
2025-05-29 15:09:33.229,89685,7552,4018,51585,80805
2025-05-29 15:09:33.250,89707,7557,4023,51582,80818
2025-05-29 15:09:33.251,89697,7568,4023,51580,80822
2025-05-29 15:09:33.261,89710,7565,4023,51590,80842
2025-05-29 15:09:33.270,89714,7570,4025,51592,80848
2025-05-29 15:09:33.281,89721,7585,4028,51588,80864
2025-05-29 15:09:33.289,89732,7598,4035,51616,80865
2025-05-29 15:09:33.318,89748,7601,4040,51599,80874
2025-05-29 15:09:33.320,89743,7602,4043,51619,80884
2025-05-29 15:09:33.321,89759,7609,4046,51604,80895
2025-05-29 15:09:33.329,89762,7624,4048,51607,80904
2025-05-29 15:09:33.340,89772,7622,4047,51609,80921
2025-05-29 15:09:33.349,89768,7638,4053,51611,80921
2025-05-29 15:09:33.360,89769,7640,4055,51621,80931
2025-05-29 15:09:33.386,89781,7645,4053,51610,80926
2025-05-29 15:09:33.388,89781,7644,4055,51613,80944
2025-05-29 15:09:33.390,89793,7654,4059,51619,80941
2025-05-29 15:09:33.401,89793,7660,4057,51622,80952
2025-05-29 15:09:33.410,89787,7666,4063,51622,80933
2025-05-29 15:09:33.421,89753,7648,4063,51611,80943
2025-05-29 15:09:33.428,89741,7657,4064,51603,80917
2025-05-29 15:09:33.455,89712,7649,4061,51595,80888
2025-05-29 15:09:33.456,89675,7625,4054,51570,80864
2025-05-29 15:09:33.460,89648,7605,4048,51567,80822
2025-05-29 15:09:33.474,89599,7569,4030,51554,80795
2025-05-29 15:09:33.481,89591,7553,4028,51535,80754
2025-05-29 15:09:33.492,89556,7519,4010,51531,80731
2025-05-29 15:09:33.501,89534,7483,4003,51510,80689
2025-05-29 15:09:33.522,89502,7453,3989,51505,80667
2025-05-29 15:09:33.523,89497,7431,3982,51507,80652
2025-05-29 15:09:33.533,89482,7407,3975,51495,80631
2025-05-29 15:09:33.540,89486,7381,3960,51488,80598
2025-05-29 15:09:33.553,89482,7376,3963,51489,80590
2025-05-29 15:09:33.561,89467,7364,3953,51485,80577
2025-05-29 15:09:33.592,89458,7344,3949,51479,80578
2025-05-29 15:09:33.594,89448,7335,3935,51472,80558
2025-05-29 15:09:33.595,89448,7322,3943,51489,80555
2025-05-29 15:09:33.602,89438,7305,3934,51477,80547
2025-05-29 15:09:33.613,89443,7293,3925,51469,80528
2025-05-29 15:09:33.621,89442,7283,3926,51482,80527
2025-05-29 15:09:33.632,89439,7271,3925,51483,80505
2025-05-29 15:09:33.641,89448,7264,3918,51450,80512
2025-05-29 15:09:33.662,89438,7252,3918,51476,80502
2025-05-29 15:09:33.663,89451,7233,3912,51450,80496
2025-05-29 15:09:33.673,89447,7226,3911,51484,80474
2025-05-29 15:09:33.681,89440,7227,3907,51473,80480
2025-05-29 15:09:33.693,89453,7225,3909,51445,80466
2025-05-29 15:09:33.701,89473,7220,3914,51447,80467
2025-05-29 15:09:33.729,89487,7214,3913,51433,80450
2025-05-29 15:09:33.731,89498,7221,3908,51456,80465
2025-05-29 15:09:33.732,89527,7206,3915,51435,80461
2025-05-29 15:09:33.741,89536,7212,3904,51451,80461
2025-05-29 15:09:33.752,89567,7208,3915,51446,80464
2025-05-29 15:09:33.761,89586,7204,3914,51457,80458
2025-05-29 15:09:33.772,89601,7202,3919,51451,80464
2025-05-29 15:09:33.796,89603,7187,3920,51453,80459
2025-05-29 15:09:33.797,89605,7201,3918,51449,80456
2025-05-29 15:09:33.801,89633,7185,3923,51433,80429
2025-05-29 15:09:33.813,89638,7184,3926,51440,80399
2025-05-29 15:09:33.821,89643,7176,3928,51427,80375
2025-05-29 15:09:33.832,89645,7183,3924,51417,80373
2025-05-29 15:09:33.843,89627,7176,3926,51409,80358
2025-05-29 15:09:33.862,89618,7170,3929,51375,80325
2025-05-29 15:09:33.863,89605,7170,3925,51373,80279
2025-05-29 15:09:33.873,89589,7160,3939,51332,80240
2025-05-29 15:09:33.881,89538,7164,3942,51300,80212
2025-05-29 15:09:33.892,89518,7154,3940,51246,80147
2025-05-29 15:09:33.900,89483,7144,3928,51215,80085
2025-05-29 15:09:33.931,89437,7137,3933,51147,80025
2025-05-29 15:09:33.932,89419,7138,3928,51096,79954
2025-05-29 15:09:33.933,89358,7115,3927,51038,79891
2025-05-29 15:09:33.944,89326,7105,3929,50988,79834
2025-05-29 15:09:33.953,89289,7100,3920,50917,79741
2025-05-29 15:09:33.964,89262,7090,3918,50839,79659
2025-05-29 15:09:33.972,89228,7078,3910,50763,79563
2025-05-29 15:09:33.996,89215,7074,3906,50688,79475
2025-05-29 15:09:33.998,89171,7081,3902,50630,79428
2025-05-29 15:09:34.004,89145,7078,3905,50573,79364
2025-05-29 15:09:34.013,89091,7069,3903,50512,79306
2025-05-29 15:09:34.026,89000,7060,3898,50420,79186
2025-05-29 15:09:34.032,88953,7065,3891,50277,79051
2025-05-29 15:09:34.044,88954,7065,3884,50169,78928
2025-05-29 15:09:34.061,88963,7077,3885,50122,78912
2025-05-29 15:09:34.065,88981,7100,3896,50092,78877
2025-05-29 15:09:34.072,89004,7116,3895,50081,78859
2025-05-29 15:09:34.085,89012,7136,3899,50069,78861
2025-05-29 15:09:34.093,89034,7145,3899,50045,78859
2025-05-29 15:09:34.096,89034,7145,3899,50045,78859
2025-05-29 15:09:34.104,89096,7192,3916,50018,78843
2025-05-29 15:09:34.130,89123,7211,3922,50017,78864
2025-05-29 15:09:34.131,89139,7235,3933,50035,78887
2025-05-29 15:09:34.133,89170,7254,3947,50049,78920
2025-05-29 15:09:34.145,89192,7279,3958,50063,78935
2025-05-29 15:09:34.153,89235,7303,3969,50082,78956
2025-05-29 15:09:34.164,89268,7336,3983,50098,78998
2025-05-29 15:09:34.173,89323,7360,3995,50129,79025
2025-05-29 15:09:34.195,89380,7393,4011,50165,79086
2025-05-29 15:09:34.196,89434,7428,4023,50208,79145
2025-05-29 15:09:34.205,89463,7459,4048,50264,79210
2025-05-29 15:09:34.213,89504,7472,4055,50282,79261
2025-05-29 15:09:34.225,89533,7496,4071,50317,79293
2025-05-29 15:09:34.232,89548,7519,4086,50343,79355
2025-05-29 15:09:34.262,89588,7541,4095,50402,79400
2025-05-29 15:09:34.263,89631,7566,4110,50498,79500
2025-05-29 15:09:34.264,89687,7578,4126,50564,79575
2025-05-29 15:09:34.273,89761,7620,4143,50628,79666
2025-05-29 15:09:34.284,89797,7650,4161,50703,79726
2025-05-29 15:09:34.293,89835,7657,4173,50767,79812
2025-05-29 15:09:34.304,89860,7689,4186,50807,79863
2025-05-29 15:09:34.328,89881,7700,4202,50837,79887
2025-05-29 15:09:34.329,89873,7696,4212,50841,79890
2025-05-29 15:09:34.333,89901,7713,4214,50866,79913
2025-05-29 15:09:34.344,89912,7726,4221,50902,79955
2025-05-29 15:09:34.352,89944,7748,4228,50958,79987
2025-05-29 15:09:34.365,89973,7745,4225,50995,80047
2025-05-29 15:09:34.372,90013,7764,4236,51042,80108
2025-05-29 15:09:34.394,90036,7767,4251,51115,80169
2025-05-29 15:09:34.395,90064,7783,4254,51193,80268
2025-05-29 15:09:34.404,90070,7788,4262,51252,80299
2025-05-29 15:09:34.412,90066,7789,4263,51291,80330
2025-05-29 15:09:34.424,90086,7797,4266,51300,80337
2025-05-29 15:09:34.436,90096,7794,4275,51323,80365
2025-05-29 15:09:34.460,90112,7803,4273,51351,80388
2025-05-29 15:09:34.462,90129,7794,4279,51392,80449
2025-05-29 15:09:34.464,90163,7801,4286,51436,80495
2025-05-29 15:09:34.477,90185,7803,4282,51480,80535
2025-05-29 15:09:34.485,90219,7804,4291,51504,80555
2025-05-29 15:09:34.497,90219,7805,4293,51514,80559
2025-05-29 15:09:34.505,90247,7804,4295,51519,80562
2025-05-29 15:09:34.528,90266,7819,4296,51519,80576
2025-05-29 15:09:34.530,90307,7825,4303,51551,80614
2025-05-29 15:09:34.537,90353,7831,4308,51578,80651
2025-05-29 15:09:34.545,90368,7842,4322,51598,80671
2025-05-29 15:09:34.557,90383,7848,4319,51612,80696
2025-05-29 15:09:34.564,90403,7866,4334,51643,80709
2025-05-29 15:09:34.596,90410,7861,4335,51618,80722
2025-05-29 15:09:34.598,90403,7869,4339,51597,80697
2025-05-29 15:09:34.599,90387,7862,4343,51569,80669
2025-05-29 15:09:34.604,90389,7866,4349,51524,80645
2025-05-29 15:09:34.616,90378,7856,4345,51491,80630
2025-05-29 15:09:34.625,90341,7846,4344,51459,80598
2025-05-29 15:09:34.636,90274,7806,4332,51376,80537
2025-05-29 15:09:34.644,90301,7820,4319,51299,80482
2025-05-29 15:09:34.661,90329,7843,4329,51317,80523
2025-05-29 15:09:34.665,90427,7882,4354,51388,80582
2025-05-29 15:09:34.677,90505,7911,4363,51476,80683
2025-05-29 15:09:34.685,90587,7933,4379,51550,80755
2025-05-29 15:09:34.697,90641,7926,4384,51605,80816
2025-05-29 15:09:34.704,90625,7927,4378,51613,80844
2025-05-29 15:09:34.735,90641,7926,4379,51599,80827
2025-05-29 15:09:34.737,90649,7933,4380,51608,80826
2025-05-29 15:09:34.739,90662,7923,4391,51605,80850
2025-05-29 15:09:34.744,90685,7935,4400,51611,80856
2025-05-29 15:09:34.757,90685,7937,4394,51626,80849
2025-05-29 15:09:34.765,90715,7930,4402,51643,80900
2025-05-29 15:09:34.777,90736,7935,4398,51678,80929
2025-05-29 15:09:34.804,90749,7940,4401,51711,80984
2025-05-29 15:09:34.806,90764,7943,4404,51744,81012
2025-05-29 15:09:34.807,90750,7932,4400,51760,81029
2025-05-29 15:09:34.818,90723,7923,4398,51758,81020
2025-05-29 15:09:34.825,90696,7901,4394,51743,80975
2025-05-29 15:09:34.837,90672,7871,4390,51729,80963
2025-05-29 15:09:34.845,90630,7837,4383,51711,80911
2025-05-29 15:09:34.871,90608,7797,4356,51691,80881
2025-05-29 15:09:34.872,90583,7753,4349,51677,80848
2025-05-29 15:09:34.876,90548,7705,4338,51667,80804
2025-05-29 15:09:34.889,90525,7662,4323,51666,80761
2025-05-29 15:09:34.897,90488,7614,4319,51652,80752
2025-05-29 15:09:34.909,90488,7614,4319,51652,80752
2025-05-29 15:09:34.917,90461,7566,4296,51647,80723
2025-05-29 15:09:34.944,90436,7532,4284,51636,80704
2025-05-29 15:09:34.946,90403,7484,4266,51631,80651
2025-05-29 15:09:34.948,90389,7443,4255,51611,80630
2025-05-29 15:09:34.957,90363,7424,4239,51604,80597
2025-05-29 15:09:34.970,90339,7400,4228,51597,80578
2025-05-29 15:09:34.978,90324,7361,4215,51575,80557
2025-05-29 15:09:34.989,90311,7347,4211,51584,80529
2025-05-29 15:09:35.018,90279,7315,4195,51560,80506
2025-05-29 15:09:35.020,90274,7296,4200,51555,80490
2025-05-29 15:09:35.021,90239,7265,4181,51549,80472
2025-05-29 15:09:35.029,90216,7249,4172,51548,80440
2025-05-29 15:09:35.038,90199,7227,4155,51533,80429
2025-05-29 15:09:35.049,90185,7203,4148,51527,80394
2025-05-29 15:09:35.057,90160,7176,4140,51506,80386
2025-05-29 15:09:35.092,90143,7161,4141,51507,80361
2025-05-29 15:09:35.093,90120,7146,4124,51505,80335
2025-05-29 15:09:35.095,90108,7126,4121,51479,80327
2025-05-29 15:09:35.101,90084,7120,4108,51482,80315
2025-05-29 15:09:35.103,90084,7120,4108,51482,80315
2025-05-29 15:09:35.109,90048,7094,4105,51454,80284
2025-05-29 15:09:35.117,90053,7069,4097,51446,80260
2025-05-29 15:09:35.128,90046,7060,4085,51443,80249
2025-05-29 15:09:35.136,90003,7055,4080,51438,80230
2025-05-29 15:09:35.159,90002,7041,4081,51418,80210
2025-05-29 15:09:35.160,89978,7029,4082,51407,80199
2025-05-29 15:09:35.168,89962,7011,4074,51406,80172
2025-05-29 15:09:35.178,89946,6999,4056,51401,80161
2025-05-29 15:09:35.188,89951,6994,4056,51392,80137
2025-05-29 15:09:35.197,89932,6983,4036,51383,80136
2025-05-29 15:09:35.224,89912,6966,4049,51386,80128
2025-05-29 15:09:35.226,89916,6958,4046,51366,80091
2025-05-29 15:09:35.228,89903,6944,4046,51362,80075
2025-05-29 15:09:35.241,89881,6941,4036,51351,80063
2025-05-29 15:09:35.248,89870,6939,4035,51344,80059
2025-05-29 15:09:35.260,89857,6930,4030,51344,80059
2025-05-29 15:09:35.269,89864,6931,4027,51339,80036
2025-05-29 15:09:35.291,89850,6918,4024,51321,80047
2025-05-29 15:09:35.292,89837,6916,4023,51318,80021
2025-05-29 15:09:35.301,89820,6909,4022,51316,80011
2025-05-29 15:09:35.309,89834,6905,4012,51319,80013
2025-05-29 15:09:35.321,89820,6900,4015,51308,79991
2025-05-29 15:09:35.329,89815,6902,4014,51303,79979
2025-05-29 15:09:35.340,89815,6901,4015,51284,79969
2025-05-29 15:09:35.357,89797,6897,4019,51283,79973
2025-05-29 15:09:35.361,89805,6891,4007,51284,79958
2025-05-29 15:09:35.368,89783,6892,4013,51278,79946
2025-05-29 15:09:35.380,89793,6886,4021,51269,79940
2025-05-29 15:09:35.389,89781,6871,4009,51266,79936
2025-05-29 15:09:35.400,89785,6882,4010,51265,79924
2025-05-29 15:09:35.422,89784,6880,4002,51265,79924
2025-05-29 15:09:35.423,89776,6881,4008,51258,79908
2025-05-29 15:09:35.429,89762,6871,4013,51260,79919
2025-05-29 15:09:35.440,89768,6879,4002,51254,79904
2025-05-29 15:09:35.449,89758,6873,4002,51245,79913
2025-05-29 15:09:35.461,89764,6874,4006,51241,79903
2025-05-29 15:09:35.467,89755,6878,3998,51228,79888
2025-05-29 15:09:35.488,89752,6866,4004,51220,79870
2025-05-29 15:09:35.490,89752,6869,4003,51227,79865
2025-05-29 15:09:35.500,89743,6871,4000,51220,79873
2025-05-29 15:09:35.509,89744,6868,4003,51217,79867
2025-05-29 15:09:35.520,89744,6866,4014,51202,79852
2025-05-29 15:09:35.528,89740,6863,4002,51209,79853
2025-05-29 15:09:35.555,89733,6859,3999,51215,79841
2025-05-29 15:09:35.557,89726,6864,4003,51205,79838
2025-05-29 15:09:35.560,89731,6849,4009,51208,79841
2025-05-29 15:09:35.568,89743,6868,3999,51201,79840
2025-05-29 15:09:35.581,89743,6857,4015,51213,79831
2025-05-29 15:09:35.588,89732,6874,3993,51197,79830
2025-05-29 15:09:35.600,89736,6868,4007,51196,79838
2025-05-29 15:09:35.621,89735,6872,4004,51187,79835
2025-05-29 15:09:35.622,89752,6869,4010,51189,79818
2025-05-29 15:09:35.628,89730,6877,4007,51185,79817
2025-05-29 15:09:35.640,89729,6873,4008,51183,79820
2025-05-29 15:09:35.648,89731,6880,4013,51183,79824
2025-05-29 15:09:35.661,89736,6879,4012,51189,79815
2025-05-29 15:09:35.668,89733,6870,4017,51176,79804
2025-05-29 15:09:35.685,89738,6882,4015,51178,79803
2025-05-29 15:09:35.688,89736,6879,4015,51169,79805
2025-05-29 15:09:35.700,89742,6887,4012,51178,79809
2025-05-29 15:09:35.705,89742,6887,4012,51178,79809
2025-05-29 15:09:35.708,89751,6892,4019,51171,79807
2025-05-29 15:09:35.720,89748,6890,4018,51165,79805
2025-05-29 15:09:35.732,89752,6898,4015,51164,79828
2025-05-29 15:09:35.751,89754,6896,4022,51160,79803
2025-05-29 15:09:35.752,89759,6902,4030,51171,79800
2025-05-29 15:09:35.761,89769,6901,4030,51162,79810
2025-05-29 15:09:35.769,89766,6914,4024,51164,79802
2025-05-29 15:09:35.780,89765,6904,4028,51155,79817
2025-05-29 15:09:35.788,89765,6904,4028,51155,79817
2025-05-29 15:09:35.816,89760,6907,4029,51156,79800
2025-05-29 15:09:35.817,89762,6903,4035,51153,79814
2025-05-29 15:09:35.820,89766,6912,4035,51159,79799
2025-05-29 15:09:35.832,89764,6914,4030,51145,79803
2025-05-29 15:09:35.840,89776,6923,4038,51147,79814
2025-05-29 15:09:35.852,89776,6922,4031,51139,79800
2025-05-29 15:09:35.861,89772,6924,4037,51131,79800
2025-05-29 15:09:35.883,89764,6916,4044,51130,79788
2025-05-29 15:09:35.885,89770,6919,4040,51113,79772
2025-05-29 15:09:35.892,89753,6919,4040,51079,79762
2025-05-29 15:09:35.900,89735,6911,4034,51048,79714
2025-05-29 15:09:35.905,89735,6911,4034,51048,79714
2025-05-29 15:09:35.914,89724,6922,4038,50981,79649
2025-05-29 15:09:35.920,89719,6912,4033,50960,79639
2025-05-29 15:09:35.932,89679,6902,4043,50931,79615
2025-05-29 15:09:35.950,89631,6903,4023,50869,79562
2025-05-29 15:09:35.952,89565,6902,4026,50789,79464
2025-05-29 15:09:35.961,89526,6891,4020,50732,79395
2025-05-29 15:09:35.972,89481,6879,4016,50656,79316
2025-05-29 15:09:35.980,89450,6877,4003,50562,79229
2025-05-29 15:09:35.992,89447,6877,4014,50519,79201
2025-05-29 15:09:36.015,89451,6887,4005,50493,79170
2025-05-29 15:09:36.017,89479,6888,4017,50479,79149
2025-05-29 15:09:36.020,89495,6887,4023,50488,79145
2025-05-29 15:09:36.033,89531,6898,4027,50492,79140
2025-05-29 15:09:36.041,89542,6889,4016,50498,79143
2025-05-29 15:09:36.052,89571,6901,4029,50496,79140
2025-05-29 15:09:36.061,89600,6899,4033,50523,79130
2025-05-29 15:09:36.082,89614,6899,4023,50527,79159
2025-05-29 15:09:36.084,89611,6899,4029,50496,79140
2025-05-29 15:09:36.093,89617,6903,4028,50494,79132
2025-05-29 15:09:36.101,89637,6910,4040,50490,79120
2025-05-29 15:09:36.112,89649,6920,4041,50489,79121
2025-05-29 15:09:36.121,89650,6923,4047,50480,79128
2025-05-29 15:09:36.147,89665,6928,4040,50489,79146
2025-05-29 15:09:36.149,89649,6925,4045,50466,79115
2025-05-29 15:09:36.152,89660,6937,4040,50448,79104
2025-05-29 15:09:36.160,89662,6937,4053,50432,79093
2025-05-29 15:09:36.172,89662,6941,4052,50427,79101
2025-05-29 15:09:36.181,89668,6951,4058,50420,79098
2025-05-29 15:09:36.193,89677,6962,4056,50419,79109
2025-05-29 15:09:36.214,89681,6963,4071,50409,79115
2025-05-29 15:09:36.216,89691,6974,4062,50395,79117
2025-05-29 15:09:36.221,89695,6983,4068,50402,79114
2025-05-29 15:09:36.233,89718,6997,4071,50404,79138
2025-05-29 15:09:36.241,89725,7002,4083,50404,79166
2025-05-29 15:09:36.252,89748,7008,4074,50418,79190
2025-05-29 15:09:36.260,89751,7017,4079,50428,79197
2025-05-29 15:09:36.283,89773,7027,4086,50438,79241
2025-05-29 15:09:36.285,89773,7048,4091,50460,79266
2025-05-29 15:09:36.293,89793,7036,4098,50478,79279
2025-05-29 15:09:36.304,89769,7033,4094,50497,79283
2025-05-29 15:09:36.313,89739,7005,4087,50501,79296
2025-05-29 15:09:36.324,89730,6988,4081,50503,79278
2025-05-29 15:09:36.332,89707,6954,4065,50521,79284
2025-05-29 15:09:36.349,89672,6938,4058,50516,79272
2025-05-29 15:09:36.352,89658,6905,4048,50534,79263
2025-05-29 15:09:36.364,89627,6890,4035,50542,79264
2025-05-29 15:09:36.372,89607,6873,4030,50555,79261
2025-05-29 15:09:36.384,89597,6849,4015,50552,79268
2025-05-29 15:09:36.394,89598,6837,4002,50567,79263
2025-05-29 15:09:36.414,89581,6818,3990,50587,79263
2025-05-29 15:09:36.416,89576,6810,3998,50599,79280
2025-05-29 15:09:36.425,89582,6810,3989,50611,79287
2025-05-29 15:09:36.433,89565,6791,3984,50628,79310
2025-05-29 15:09:36.445,89556,6780,3980,50643,79334
2025-05-29 15:09:36.452,89556,6779,3978,50662,79319
2025-05-29 15:09:36.479,89530,6770,3965,50669,79330
2025-05-29 15:09:36.481,89526,6758,3972,50661,79320
2025-05-29 15:09:36.483,89510,6745,3957,50677,79324
2025-05-29 15:09:36.493,89498,6748,3956,50669,79317
2025-05-29 15:09:36.505,89484,6732,3951,50668,79318
2025-05-29 15:09:36.512,89473,6719,3948,50672,79306
2025-05-29 15:09:36.524,89467,6721,3949,50665,79300
2025-05-29 15:09:36.545,89441,6704,3941,50662,79303
2025-05-29 15:09:36.547,89450,6717,3939,50675,79294
2025-05-29 15:09:36.552,89438,6707,3934,50672,79300
2025-05-29 15:09:36.564,89437,6699,3931,50679,79293
2025-05-29 15:09:36.573,89433,6698,3923,50668,79281
2025-05-29 15:09:36.584,89419,6697,3935,50685,79303
2025-05-29 15:09:36.592,89408,6692,3931,50683,79296
2025-05-29 15:09:36.611,89412,6688,3925,50685,79301
2025-05-29 15:09:36.613,89400,6679,3925,50690,79299
2025-05-29 15:09:36.624,89391,6686,3927,50679,79298
2025-05-29 15:09:36.633,89380,6674,3922,50681,79284
2025-05-29 15:09:36.644,89378,6686,3920,50694,79280
2025-05-29 15:09:36.653,89379,6672,3914,50689,79273
2025-05-29 15:09:36.680,89369,6676,3915,50674,79271
2025-05-29 15:09:36.682,89366,6664,3915,50691,79268
2025-05-29 15:09:36.684,89360,6662,3921,50677,79262
2025-05-29 15:09:36.696,89350,6662,3909,50693,79265
2025-05-29 15:09:36.705,89323,6659,3905,50681,79256
2025-05-29 15:09:36.713,89352,6666,3911,50699,79261
2025-05-29 15:09:36.725,89340,6674,3908,50689,79261
2025-05-29 15:09:36.746,89336,6663,3902,50700,79247
2025-05-29 15:09:36.747,89345,6662,3903,50694,79264
2025-05-29 15:09:36.757,89333,6668,3904,50706,79261
2025-05-29 15:09:36.764,89335,6665,3919,50700,79265
2025-05-29 15:09:36.776,89335,6668,3908,50692,79261
2025-05-29 15:09:36.784,89355,6676,3913,50696,79263
2025-05-29 15:09:36.811,89329,6674,3907,50704,79272
2025-05-29 15:09:36.812,89342,6673,3910,50701,79253
2025-05-29 15:09:36.816,89342,6681,3904,50692,79258
2025-05-29 15:09:36.824,89344,6678,3915,50699,79265
2025-05-29 15:09:36.837,89345,6675,3913,50694,79256
2025-05-29 15:09:36.844,89344,6682,3910,50708,79254
2025-05-29 15:09:36.856,89348,6686,3912,50703,79258
2025-05-29 15:09:36.877,89348,6688,3910,50706,79256
2025-05-29 15:09:36.878,89355,6684,3917,50689,79260
2025-05-29 15:09:36.884,89354,6691,3913,50699,79252
2025-05-29 15:09:36.896,89353,6689,3913,50694,79258
2025-05-29 15:09:36.905,89344,6695,3916,50693,79255
2025-05-29 15:09:36.917,89354,6698,3912,50682,79254
2025-05-29 15:09:36.924,89354,6696,3915,50694,79253
2025-05-29 15:09:36.944,89361,6698,3914,50691,79267
2025-05-29 15:09:36.946,89357,6701,3918,50692,79268
2025-05-29 15:09:36.956,89350,6702,3916,50686,79249
2025-05-29 15:09:36.965,89360,6707,3920,50692,79253
2025-05-29 15:09:36.976,89350,6709,3919,50673,79251
2025-05-29 15:09:36.984,89356,6716,3916,50692,79256
2025-05-29 15:09:37.010,89368,6711,3918,50694,79268
2025-05-29 15:09:37.011,89361,6711,3917,50691,79255
2025-05-29 15:09:37.017,89368,6721,3916,50685,79265
2025-05-29 15:09:37.024,89386,6726,3926,50705,79266
2025-05-29 15:09:37.037,89373,6727,3926,50692,79254
2025-05-29 15:09:37.044,89369,6730,3922,50706,79268
2025-05-29 15:09:37.057,89381,6744,3922,50698,79277
2025-05-29 15:09:37.075,89385,6738,3923,50693,79272
2025-05-29 15:09:37.077,89388,6754,3926,50700,79289
2025-05-29 15:09:37.085,89383,6745,3932,50704,79267
2025-05-29 15:09:37.096,89390,6745,3933,50702,79282
2025-05-29 15:09:37.109,89391,6752,3927,50701,79284
2025-05-29 15:09:37.116,89393,6761,3937,50694,79296
2025-05-29 15:09:37.141,89394,6766,3929,50694,79292
2025-05-29 15:09:37.143,89393,6762,3942,50692,79294
2025-05-29 15:09:37.144,89414,6778,3940,50713,79292
2025-05-29 15:09:37.157,89416,6770,3943,50706,79295
2025-05-29 15:09:37.169,89416,6776,3944,50707,79312
2025-05-29 15:09:37.176,89432,6769,3940,50718,79307
2025-05-29 15:09:37.188,89447,6786,3942,50705,79316
2025-05-29 15:09:37.206,89431,6789,3944,50705,79304
2025-05-29 15:09:37.209,89453,6801,3948,50705,79330
2025-05-29 15:09:37.217,89438,6808,3957,50716,79326
2025-05-29 15:09:37.229,89449,6796,3947,50707,79348
2025-05-29 15:09:37.236,89449,6823,3950,50713,79332
2025-05-29 15:09:37.248,89452,6826,3946,50717,79354
2025-05-29 15:09:37.272,89468,6829,3961,50725,79343
2025-05-29 15:09:37.273,89449,6821,3960,50720,79350
2025-05-29 15:09:37.276,89471,6834,3969,50714,79366
2025-05-29 15:09:37.289,89475,6839,3971,50724,79362
2025-05-29 15:09:37.297,89479,6839,3958,50724,79378
2025-05-29 15:09:37.308,89486,6849,3969,50720,79373
2025-05-29 15:09:37.316,89487,6860,3971,50736,79377
2025-05-29 15:09:37.340,89475,6863,3971,50732,79378
2025-05-29 15:09:37.341,89461,6859,3973,50717,79358
2025-05-29 15:09:37.349,89460,6858,3969,50697,79337
2025-05-29 15:09:37.357,89460,6871,3976,50692,79344
2025-05-29 15:09:37.369,89470,6871,3974,50685,79335
2025-05-29 15:09:37.377,89429,6869,3974,50695,79351
2025-05-29 15:09:37.388,89414,6870,3980,50664,79313
2025-05-29 15:09:37.406,89416,6876,3975,50649,79300
2025-05-29 15:09:37.408,89404,6879,3986,50639,79303
2025-05-29 15:09:37.417,89426,6906,3973,50655,79312
2025-05-29 15:09:37.429,89438,6900,3984,50658,79322
2025-05-29 15:09:37.436,89453,6909,3977,50676,79352
2025-05-29 15:09:37.449,89460,6910,3991,50682,79381
2025-05-29 15:09:37.471,89473,6925,3981,50701,79386
2025-05-29 15:09:37.472,89494,6934,3990,50715,79422
2025-05-29 15:09:37.476,89511,6942,3995,50726,79426
2025-05-29 15:09:37.488,89533,6935,3998,50733,79461
2025-05-29 15:09:37.497,89555,6959,4004,50745,79470
2025-05-29 15:09:37.509,89556,6966,4004,50762,79499
2025-05-29 15:09:37.512,89556,6966,4004,50762,79499
2025-05-29 15:09:37.538,89592,6985,4005,50787,79539
2025-05-29 15:09:37.539,89612,6987,4014,50796,79548
2025-05-29 15:09:37.540,89614,6990,4015,50789,79561
2025-05-29 15:09:37.549,89622,6996,4025,50806,79576
2025-05-29 15:09:37.557,89626,7002,4029,50806,79567
2025-05-29 15:09:37.568,89633,7012,4036,50795,79585
2025-05-29 15:09:37.576,89637,7018,4031,50812,79595
2025-05-29 15:09:37.603,89647,7020,4027,50811,79595
2025-05-29 15:09:37.604,89646,7026,4041,50813,79605
2025-05-29 15:09:37.608,89662,7037,4028,50820,79613
2025-05-29 15:09:37.620,89649,7041,4056,50831,79621
2025-05-29 15:09:37.628,89667,7041,4044,50821,79617
2025-05-29 15:09:37.641,89669,7046,4038,50830,79637
2025-05-29 15:09:37.649,89669,7057,4036,50831,79643
2025-05-29 15:09:37.669,89664,7057,4049,50836,79648
2025-05-29 15:09:37.670,89643,7053,4059,50829,79634
2025-05-29 15:09:37.681,89626,7029,4045,50827,79613
2025-05-29 15:09:37.688,89594,7013,4039,50816,79601
2025-05-29 15:09:37.700,89581,6989,4043,50813,79582
2025-05-29 15:09:37.709,89540,6961,4028,50804,79549
2025-05-29 15:09:37.734,89513,6933,4005,50794,79524
2025-05-29 15:09:37.735,89484,6915,3999,50775,79499
2025-05-29 15:09:37.741,89458,6885,3979,50788,79489
2025-05-29 15:09:37.749,89412,6861,3972,50783,79468
2025-05-29 15:09:37.761,89402,6834,3967,50768,79435
2025-05-29 15:09:37.769,89397,6827,3953,50767,79443
2025-05-29 15:09:37.780,89368,6814,3949,50761,79431
2025-05-29 15:09:37.802,89359,6817,3941,50759,79410
2025-05-29 15:09:37.804,89340,6790,3933,50760,79415
2025-05-29 15:09:37.808,89329,6790,3930,50763,79402
2025-05-29 15:09:37.820,89324,6782,3928,50758,79413
2025-05-29 15:09:37.829,89317,6784,3922,50762,79400
2025-05-29 15:09:37.840,89308,6770,3915,50760,79401
2025-05-29 15:09:37.848,89312,6764,3912,50750,79392
2025-05-29 15:09:37.868,89289,6756,3903,50756,79390
2025-05-29 15:09:37.869,89285,6758,3915,50749,79374
2025-05-29 15:09:37.881,89266,6752,3909,50738,79378
2025-05-29 15:09:37.889,89266,6738,3899,50745,79369
2025-05-29 15:09:37.901,89267,6736,3894,50741,79361
2025-05-29 15:09:37.908,89258,6740,3899,50736,79354
2025-05-29 15:09:37.934,89251,6744,3893,50747,79351
2025-05-29 15:09:37.935,89263,6736,3895,50739,79358
2025-05-29 15:09:37.940,89245,6743,3896,50748,79358
2025-05-29 15:09:37.948,89253,6737,3897,50735,79356
2025-05-29 15:09:37.960,89247,6737,3896,50739,79352
2025-05-29 15:09:37.970,89238,6741,3889,50723,79360
2025-05-29 15:09:37.980,89228,6730,3886,50731,79347
2025-05-29 15:09:38.000,89232,6735,3889,50740,79339
2025-05-29 15:09:38.001,89225,6737,3887,50729,79331
2025-05-29 15:09:38.008,89236,6731,3888,50721,79336
2025-05-29 15:09:38.021,89223,6739,3880,50725,79337
2025-05-29 15:09:38.028,89214,6732,3882,50723,79326
2025-05-29 15:09:38.040,89219,6727,3878,50737,79343
2025-05-29 15:09:38.065,89220,6731,3874,50736,79325
2025-05-29 15:09:38.067,89206,6740,3875,50735,79332
2025-05-29 15:09:38.069,89205,6735,3877,50725,79338
2025-05-29 15:09:38.081,89209,6735,3861,50727,79332
2025-05-29 15:09:38.093,89214,6736,3865,50728,79332
2025-05-29 15:09:38.100,89210,6738,3880,50733,79324
2025-05-29 15:09:38.113,89220,6739,3880,50739,79334
2025-05-29 15:09:38.132,89211,6743,3879,50734,79332
2025-05-29 15:09:38.134,89213,6743,3880,50719,79340
2025-05-29 15:09:38.141,89219,6756,3883,50717,79330
2025-05-29 15:09:38.152,89220,6751,3876,50714,79340
2025-05-29 15:09:38.161,89223,6771,3874,50740,79324
2025-05-29 15:09:38.172,89229,6763,3881,50725,79332
2025-05-29 15:09:38.180,89218,6767,3878,50740,79354
2025-05-29 15:09:38.199,89230,6775,3890,50723,79346
2025-05-29 15:09:38.200,89237,6778,3876,50731,79342
2025-05-29 15:09:38.212,89239,6789,3887,50730,79348
2025-05-29 15:09:38.221,89240,6791,3885,50734,79358
2025-05-29 15:09:38.232,89248,6795,3888,50736,79364
2025-05-29 15:09:38.240,89249,6794,3889,50734,79361
2025-05-29 15:09:38.266,89249,6796,3893,50735,79358
2025-05-29 15:09:38.267,89244,6802,3890,50735,79368
2025-05-29 15:09:38.272,89255,6810,3889,50750,79373
2025-05-29 15:09:38.281,89254,6798,3890,50737,79368
2025-05-29 15:09:38.293,89259,6812,3893,50733,79369
2025-05-29 15:09:38.300,89270,6818,3896,50745,79374
2025-05-29 15:09:38.312,89268,6825,3902,50745,79373
2025-05-29 15:09:38.331,89276,6822,3894,50732,79368
2025-05-29 15:09:38.332,89261,6835,3887,50745,79393
2025-05-29 15:09:38.340,89283,6839,3898,50740,79399
2025-05-29 15:09:38.352,89285,6837,3909,50758,79403
2025-05-29 15:09:38.360,89296,6844,3906,50744,79404
2025-05-29 15:09:38.372,89298,6845,3900,50747,79413
2025-05-29 15:09:38.396,89298,6857,3915,50733,79406
2025-05-29 15:09:38.398,89307,6859,3909,50754,79423
2025-05-29 15:09:38.400,89311,6864,3907,50750,79414
2025-05-29 15:09:38.412,89301,6871,3903,50748,79434
2025-05-29 15:09:38.420,89318,6871,3914,50754,79436
2025-05-29 15:09:38.432,89327,6886,3916,50765,79434
2025-05-29 15:09:38.440,89322,6881,3918,50764,79425
2025-05-29 15:09:38.462,89329,6891,3915,50753,79444
2025-05-29 15:09:38.464,89335,6891,3919,50770,79456
2025-05-29 15:09:38.472,89344,6907,3926,50772,79469
2025-05-29 15:09:38.481,89334,6901,3916,50765,79464
2025-05-29 15:09:38.492,89348,6913,3930,50776,79457
2025-05-29 15:09:38.501,89352,6917,3925,50786,79479
2025-05-29 15:09:38.530,89363,6920,3926,50773,79484
2025-05-29 15:09:38.531,89373,6928,3934,50775,79489
2025-05-29 15:09:38.532,89385,6930,3932,50779,79494
2025-05-29 15:09:38.544,89394,6946,3944,50788,79506
2025-05-29 15:09:38.553,89393,6946,3944,50785,79517
2025-05-29 15:09:38.564,89396,6955,3946,50790,79529
2025-05-29 15:09:38.571,89407,6959,3943,50795,79522
2025-05-29 15:09:38.594,89409,6965,3946,50799,79536
2025-05-29 15:09:38.596,89411,6974,3953,50799,79538
2025-05-29 15:09:38.605,89417,6979,3948,50795,79541
2025-05-29 15:09:38.613,89409,6991,3950,50798,79548
2025-05-29 15:09:38.624,89442,6981,3960,50815,79555
2025-05-29 15:09:38.633,89444,6994,3954,50804,79555
2025-05-29 15:09:38.660,89443,7007,3966,50810,79560
2025-05-29 15:09:38.661,89438,7004,3962,50802,79571
2025-05-29 15:09:38.664,89463,7010,3972,50820,79580
2025-05-29 15:09:38.673,89461,7020,3963,50810,79587
2025-05-29 15:09:38.685,89463,7024,3976,50815,79586
2025-05-29 15:09:38.692,89470,7035,3976,50818,79603
2025-05-29 15:09:38.704,89477,7036,3973,50828,79612
2025-05-29 15:09:38.725,89480,7052,3981,50828,79628
2025-05-29 15:09:38.727,89496,7049,3979,50833,79639
2025-05-29 15:09:38.733,89506,7051,3979,50836,79629
2025-05-29 15:09:38.745,89504,7063,3985,50836,79633
2025-05-29 15:09:38.754,89517,7075,3980,50837,79649
2025-05-29 15:09:38.764,89516,7079,3985,50841,79656
2025-05-29 15:09:38.772,89526,7093,3992,50840,79650
2025-05-29 15:09:38.792,89535,7088,3990,50848,79666
2025-05-29 15:09:38.793,89535,7092,3990,50840,79675
2025-05-29 15:09:38.804,89545,7098,3995,50857,79683
2025-05-29 15:09:38.813,89559,7106,4004,50855,79696
2025-05-29 15:09:38.824,89556,7109,4004,50849,79724
2025-05-29 15:09:38.833,89566,7113,4001,50872,79704
2025-05-29 15:09:38.858,89557,7125,4004,50870,79733
2025-05-29 15:09:38.859,89588,7127,4009,50860,79719
2025-05-29 15:09:38.864,89604,7143,4008,50874,79738
2025-05-29 15:09:38.872,89594,7144,4011,50883,79743
2025-05-29 15:09:38.885,89604,7143,4013,50880,79744
2025-05-29 15:09:38.892,89616,7156,4021,50892,79762
2025-05-29 15:09:38.904,89628,7163,4013,50883,79770
2025-05-29 15:09:38.924,89622,7180,4021,50888,79773
2025-05-29 15:09:38.926,89646,7187,4026,50890,79782
2025-05-29 15:09:38.933,89639,7184,4029,50905,79787
2025-05-29 15:09:38.945,89665,7188,4027,50909,79801
2025-05-29 15:09:38.956,89653,7203,4030,50904,79810
2025-05-29 15:09:38.965,89668,7212,4037,50907,79806
2025-05-29 15:09:38.990,89659,7203,4037,50902,79822
2025-05-29 15:09:38.992,89645,7213,4043,50901,79838
2025-05-29 15:09:38.996,89652,7210,4046,50908,79820
2025-05-29 15:09:39.005,89615,7203,4034,50907,79828
2025-05-29 15:09:39.016,89596,7191,4033,50899,79805
2025-05-29 15:09:39.024,89559,7160,4029,50894,79777
2025-05-29 15:09:39.037,89540,7130,4020,50880,79768
2025-05-29 15:09:39.055,89515,7116,4013,50876,79748
2025-05-29 15:09:39.056,89481,7107,4014,50878,79724
2025-05-29 15:09:39.065,89461,7082,3989,50875,79714
2025-05-29 15:09:39.076,89436,7056,3989,50864,79691
2025-05-29 15:09:39.084,89435,7046,3974,50864,79685
2025-05-29 15:09:39.096,89405,7028,3966,50873,79668
2025-05-29 15:09:39.121,89406,7021,3962,50858,79656
2025-05-29 15:09:39.123,89398,7006,3949,50858,79657
2025-05-29 15:09:39.124,89401,7017,3953,50858,79633
2025-05-29 15:09:39.137,89397,6996,3946,50855,79653
2025-05-29 15:09:39.144,89386,6988,3933,50860,79646
2025-05-29 15:09:39.156,89401,6989,3929,50853,79642
2025-05-29 15:09:39.164,89375,6990,3926,50839,79641
2025-05-29 15:09:39.187,89382,6978,3927,50854,79637
2025-05-29 15:09:39.188,89358,6977,3929,50850,79637
2025-05-29 15:09:39.197,89365,6967,3915,50846,79622
2025-05-29 15:09:39.205,89343,6967,3917,50851,79636
2025-05-29 15:09:39.216,89344,6966,3911,50844,79620
2025-05-29 15:09:39.224,89343,6966,3920,50834,79611
2025-05-29 15:09:39.253,89336,6970,3913,50854,79613
2025-05-29 15:09:39.254,89334,6959,3911,50835,79613
2025-05-29 15:09:39.256,89335,6975,3909,50847,79627
2025-05-29 15:09:39.265,89340,6968,3913,50836,79608
2025-05-29 15:09:39.276,89340,6968,3906,50835,79626
2025-05-29 15:09:39.285,89340,6976,3909,50846,79614
2025-05-29 15:09:39.297,89343,6961,3910,50845,79612
2025-05-29 15:09:39.320,89325,6991,3901,50854,79622
2025-05-29 15:09:39.321,89322,6963,3900,50832,79614
2025-05-29 15:09:39.322,89322,6963,3900,50832,79614
2025-05-29 15:09:39.324,89325,6960,3908,50819,79585
2025-05-29 15:09:39.336,89337,6971,3903,50830,79606
2025-05-29 15:09:39.344,89320,6954,3899,50828,79608
2025-05-29 15:09:39.356,89321,6954,3898,50822,79603
2025-05-29 15:09:39.364,89324,6952,3906,50834,79590
2025-05-29 15:09:39.386,89323,6952,3908,50832,79604
2025-05-29 15:09:39.388,89322,6955,3895,50826,79598
2025-05-29 15:09:39.397,89327,6947,3896,50826,79616
2025-05-29 15:09:39.408,89324,6960,3901,50829,79607
2025-05-29 15:09:39.417,89320,6956,3896,50826,79605
2025-05-29 15:09:39.428,89333,6960,3892,50829,79613
2025-05-29 15:09:39.453,89328,6969,3904,50831,79612
2025-05-29 15:09:39.454,89336,6970,3906,50838,79610
2025-05-29 15:09:39.456,89342,6982,3898,50843,79611
2025-05-29 15:09:39.468,89329,6976,3898,50836,79625
2025-05-29 15:09:39.477,89343,6988,3897,50843,79612
2025-05-29 15:09:39.488,89335,7001,3899,50837,79604
2025-05-29 15:09:39.497,89346,6989,3903,50830,79627
2025-05-29 15:09:39.518,89345,7013,3905,50835,79610
2025-05-29 15:09:39.519,89368,7001,3910,50842,79638
2025-05-29 15:09:39.530,89353,7033,3914,50839,79617
2025-05-29 15:09:39.536,89367,7022,3904,50842,79647
2025-05-29 15:09:39.548,89377,7016,3921,50836,79646
2025-05-29 15:09:39.556,89367,7020,3913,50838,79636
2025-05-29 15:09:39.587,89377,7023,3923,50835,79649
2025-05-29 15:09:39.589,89384,7021,3917,50841,79638
2025-05-29 15:09:39.590,89379,7028,3918,50832,79641
2025-05-29 15:09:39.596,89376,7029,3919,50840,79658
2025-05-29 15:09:39.608,89384,7039,3923,50843,79666
2025-05-29 15:09:39.617,89387,7040,3922,50841,79657
2025-05-29 15:09:39.628,89407,7047,3929,50839,79662
2025-05-29 15:09:39.635,89400,7052,3924,50848,79670
2025-05-29 15:09:39.653,89408,7054,3943,50843,79677
2025-05-29 15:09:39.657,89415,7054,3929,50847,79679
2025-05-29 15:09:39.668,89423,7055,3940,50851,79681
2025-05-29 15:09:39.676,89426,7064,3929,50845,79683
2025-05-29 15:09:39.688,89421,7075,3946,50859,79679
2025-05-29 15:09:39.696,89418,7073,3931,50852,79689
2025-05-29 15:09:39.719,89436,7077,3940,50856,79704
2025-05-29 15:09:39.720,89431,7079,3934,50848,79701
2025-05-29 15:09:39.729,89453,7087,3928,50861,79701
2025-05-29 15:09:39.736,89444,7096,3939,50861,79696
2025-05-29 15:09:39.748,89461,7098,3929,50866,79715
2025-05-29 15:09:39.755,89460,7099,3937,50862,79716
2025-05-29 15:09:39.768,89465,7097,3929,50852,79724
2025-05-29 15:09:39.787,89453,7103,3933,50868,79736
2025-05-29 15:09:39.789,89479,7123,3944,50869,79715
2025-05-29 15:09:39.798,89478,7122,3940,50872,79737
2025-05-29 15:09:39.809,89484,7121,3943,50865,79751
2025-05-29 15:09:39.821,89497,7127,3938,50873,79741
2025-05-29 15:09:39.828,89495,7129,3949,50872,79750
2025-05-29 15:09:39.853,89505,7141,3958,50874,79765
2025-05-29 15:09:39.855,89506,7144,3957,50887,79757
2025-05-29 15:09:39.860,89518,7138,3983,50886,79764
2025-05-29 15:09:39.869,89513,7155,3971,50888,79768
2025-05-29 15:09:39.880,89534,7157,3978,50880,79790
2025-05-29 15:09:39.888,89525,7163,3972,50887,79788
2025-05-29 15:09:39.900,89542,7165,3981,50882,79782
2025-05-29 15:09:39.919,89541,7168,3979,50878,79795
2025-05-29 15:09:39.920,89526,7153,3985,50880,79787
2025-05-29 15:09:39.928,89512,7161,3979,50875,79777
2025-05-29 15:09:39.941,89499,7148,3975,50881,79758
2025-05-29 15:09:39.948,89490,7129,3956,50864,79751
2025-05-29 15:09:39.961,89450,7103,3960,50869,79710
2025-05-29 15:09:39.987,89428,7091,3949,50868,79696
2025-05-29 15:09:39.989,89402,7068,3944,50859,79696
2025-05-29 15:09:39.990,89402,7058,3938,50850,79687
2025-05-29 15:09:40.001,89384,7038,3921,50848,79669
2025-05-29 15:09:40.009,89358,7016,3914,50846,79647
2025-05-29 15:09:40.020,89342,7004,3911,50833,79630
2025-05-29 15:09:40.029,89337,6989,3898,50826,79629
2025-05-29 15:09:40.054,89328,6987,3892,50831,79603
2025-05-29 15:09:40.056,89316,6979,3899,50815,79616
2025-05-29 15:09:40.060,89316,6975,3900,50819,79598
2025-05-29 15:09:40.068,89304,6974,3883,50807,79604
2025-05-29 15:09:40.081,89306,6965,3878,50816,79599
2025-05-29 15:09:40.088,89313,6963,3880,50815,79583
2025-05-29 15:09:40.099,89302,6956,3876,50816,79574
2025-05-29 15:09:40.119,89289,6955,3877,50816,79577
2025-05-29 15:09:40.121,89293,6947,3874,50813,79587
2025-05-29 15:09:40.129,89292,6949,3870,50818,79579
2025-05-29 15:09:40.140,89289,6951,3871,50803,79586
2025-05-29 15:09:40.148,89306,6951,3864,50821,79584
2025-05-29 15:09:40.160,89306,6949,3871,50819,79586
2025-05-29 15:09:40.186,89306,6963,3876,50812,79587
2025-05-29 15:09:40.188,89295,6955,3874,50814,79580
2025-05-29 15:09:40.189,89293,6949,3884,50813,79563
2025-05-29 15:09:40.200,89302,6958,3871,50807,79568
2025-05-29 15:09:40.212,89299,6959,3870,50809,79574
2025-05-29 15:09:40.220,89302,6954,3864,50813,79574
2025-05-29 15:09:40.232,89292,6950,3873,50813,79560
2025-05-29 15:09:40.253,89299,6945,3869,50802,79572
2025-05-29 15:09:40.254,89284,6943,3873,50796,79557
2025-05-29 15:09:40.260,89287,6948,3873,50813,79546
2025-05-29 15:09:40.272,89293,6947,3877,50803,79561
2025-05-29 15:09:40.281,89297,6943,3877,50807,79552
2025-05-29 15:09:40.292,89284,6940,3871,50796,79549
2025-05-29 15:09:40.299,89296,6942,3863,50794,79541
2025-05-29 15:09:40.321,89302,6944,3867,50796,79524
2025-05-29 15:09:40.323,89286,6944,3867,50787,79529
2025-05-29 15:09:40.331,89297,6945,3865,50796,79536
2025-05-29 15:09:40.340,89302,6945,3864,50788,79540
2025-05-29 15:09:40.352,89299,6949,3877,50797,79544
2025-05-29 15:09:40.360,89302,6948,3875,50782,79536
2025-05-29 15:09:40.388,89306,6952,3872,50799,79548
2025-05-29 15:09:40.389,89314,6957,3874,50784,79548
2025-05-29 15:09:40.392,89317,6962,3871,50805,79544
2025-05-29 15:09:40.400,89317,6963,3890,50794,79558
2025-05-29 15:09:40.413,89335,6964,3876,50813,79559
2025-05-29 15:09:40.420,89329,6969,3874,50796,79551
2025-05-29 15:09:40.432,89340,6975,3878,50805,79564
2025-05-29 15:09:40.453,89340,6980,3887,50808,79567
2025-05-29 15:09:40.454,89345,6984,3888,50803,79567
2025-05-29 15:09:40.460,89352,6987,3891,50801,79567
2025-05-29 15:09:40.473,89352,6993,3888,50818,79574
2025-05-29 15:09:40.480,89353,6997,3894,50801,79563
2025-05-29 15:09:40.492,89358,7001,3896,50789,79580
2025-05-29 15:09:40.500,89372,6994,3881,50788,79581
2025-05-29 15:09:40.518,89367,7009,3889,50802,79580
2025-05-29 15:09:40.520,89377,7012,3898,50779,79585
2025-05-29 15:09:40.532,89383,7015,3897,50788,79569
2025-05-29 15:09:40.540,89394,7017,3901,50790,79591
2025-05-29 15:09:40.552,89382,7025,3908,50778,79583
2025-05-29 15:09:40.560,89393,7024,3896,50793,79575
2025-05-29 15:09:40.583,89392,7024,3914,50797,79605
2025-05-29 15:09:40.585,89406,7032,3908,50796,79597
2025-05-29 15:09:40.593,89405,7037,3907,50812,79607
2025-05-29 15:09:40.601,89405,7044,3911,50807,79606
2025-05-29 15:09:40.613,89418,7046,3916,50811,79609
2025-05-29 15:09:40.621,89416,7059,3917,50823,79605
2025-05-29 15:09:40.633,89415,7051,3922,50816,79616
2025-05-29 15:09:40.650,89429,7056,3912,50825,79616
2025-05-29 15:09:40.652,89439,7053,3919,50816,79609
2025-05-29 15:09:40.664,89451,7059,3916,50828,79619
2025-05-29 15:09:40.673,89443,7062,3919,50819,79613
2025-05-29 15:09:40.680,89449,7069,3922,50829,79639
2025-05-29 15:09:40.692,89451,7070,3926,50810,79631
2025-05-29 15:09:40.715,89459,7078,3934,50825,79650
2025-05-29 15:09:40.717,89462,7077,3932,50823,79644
2025-05-29 15:09:40.724,89474,7093,3933,50826,79654
2025-05-29 15:09:40.732,89472,7098,3929,50828,79660
2025-05-29 15:09:40.745,89480,7099,3940,50829,79672
2025-05-29 15:09:40.752,89498,7103,3933,50830,79663
2025-05-29 15:09:40.764,89498,7105,3948,50833,79672
2025-05-29 15:09:40.783,89503,7114,3934,50833,79673
2025-05-29 15:09:40.784,89513,7115,3950,50831,79672
2025-05-29 15:09:40.793,89511,7114,3948,50833,79697
2025-05-29 15:09:40.804,89509,7116,3949,50833,79679
2025-05-29 15:09:40.813,89503,7117,3954,50839,79683
2025-05-29 15:09:40.824,89487,7116,3960,50832,79683
2025-05-29 15:09:40.850,89472,7096,3941,50823,79657
2025-05-29 15:09:40.852,89450,7076,3950,50828,79632
2025-05-29 15:09:40.853,89423,7048,3935,50810,79611
2025-05-29 15:09:40.864,89402,7030,3926,50814,79598
2025-05-29 15:09:40.873,89372,7007,3918,50796,79567
2025-05-29 15:09:40.884,89361,6979,3909,50792,79543
2025-05-29 15:09:40.892,89330,6959,3902,50785,79507
2025-05-29 15:09:40.918,89313,6941,3900,50772,79490
2025-05-29 15:09:40.919,89302,6916,3889,50771,79454
2025-05-29 15:09:40.924,89283,6902,3882,50767,79442
2025-05-29 15:09:40.928,89283,6902,3882,50767,79442
2025-05-29 15:09:40.932,89268,6871,3863,50762,79428
2025-05-29 15:09:40.945,89258,6860,3847,50765,79429
2025-05-29 15:09:40.952,89242,6855,3843,50754,79414
2025-05-29 15:09:40.964,89253,6852,3847,50744,79422
2025-05-29 15:09:40.984,89244,6839,3846,50743,79413
2025-05-29 15:09:40.986,89223,6834,3844,50730,79403
2025-05-29 15:09:40.992,89214,6825,3835,50742,79402
2025-05-29 15:09:41.004,89221,6817,3834,50728,79379
2025-05-29 15:09:41.012,89209,6807,3833,50740,79382
2025-05-29 15:09:41.024,89207,6800,3833,50720,79358
2025-05-29 15:09:41.033,89194,6798,3824,50717,79364
2025-05-29 15:09:41.054,89202,6792,3816,50711,79338
2025-05-29 15:09:41.055,89181,6783,3816,50720,79349
2025-05-29 15:09:41.064,89197,6785,3822,50710,79328
2025-05-29 15:09:41.077,89186,6783,3815,50707,79329
2025-05-29 15:09:41.085,89186,6772,3815,50705,79319
2025-05-29 15:09:41.094,89168,6789,3811,50704,79311
2025-05-29 15:09:41.121,89168,6781,3812,50693,79305
2025-05-29 15:09:41.123,89162,6781,3811,50685,79293
2025-05-29 15:09:41.125,89162,6772,3815,50697,79294
2025-05-29 15:09:41.136,89172,6769,3807,50687,79291
2025-05-29 15:09:41.145,89158,6777,3804,50694,79288
2025-05-29 15:09:41.156,89161,6761,3808,50680,79291
2025-05-29 15:09:41.166,89166,6766,3804,50684,79288
2025-05-29 15:09:41.188,89160,6758,3806,50683,79284
2025-05-29 15:09:41.189,89150,6771,3804,50669,79256
2025-05-29 15:09:41.197,89168,6764,3806,50676,79261
2025-05-29 15:09:41.204,89154,6764,3802,50675,79266
2025-05-29 15:09:41.216,89158,6760,3806,50679,79254
2025-05-29 15:09:41.224,89172,6757,3800,50679,79259
2025-05-29 15:09:41.254,89155,6759,3804,50676,79262
2025-05-29 15:09:41.256,89157,6768,3821,50674,79252
2025-05-29 15:09:41.257,89157,6763,3807,50673,79248
2025-05-29 15:09:41.265,89159,6764,3802,50666,79247
2025-05-29 15:09:41.277,89164,6773,3808,50667,79251
2025-05-29 15:09:41.284,89167,6774,3807,50670,79247
2025-05-29 15:09:41.296,89170,6774,3813,50678,79247
2025-05-29 15:09:41.320,89170,6771,3809,50668,79244
2025-05-29 15:09:41.321,89187,6777,3811,50666,79248
2025-05-29 15:09:41.323,89181,6781,3814,50670,79248
2025-05-29 15:09:41.336,89180,6783,3806,50665,79250
2025-05-29 15:09:41.344,89188,6766,3822,50665,79240
2025-05-29 15:09:41.356,89196,6781,3816,50655,79248
2025-05-29 15:09:41.365,89181,6784,3827,50665,79247
2025-05-29 15:09:41.387,89199,6784,3816,50657,79246
2025-05-29 15:09:41.388,89205,6787,3826,50656,79232
2025-05-29 15:09:41.398,89214,6802,3826,50652,79234
2025-05-29 15:09:41.404,89197,6790,3824,50652,79239
2025-05-29 15:09:41.416,89218,6798,3825,50647,79240
2025-05-29 15:09:41.423,89220,6804,3829,50657,79234
2025-05-29 15:09:41.455,89222,6802,3838,50656,79253
2025-05-29 15:09:41.457,89214,6809,3825,50655,79248
2025-05-29 15:09:41.458,89227,6813,3837,50663,79245
2025-05-29 15:09:41.464,89220,6815,3831,50654,79248
2025-05-29 15:09:41.476,89219,6817,3829,50658,79255
2025-05-29 15:09:41.484,89237,6815,3836,50662,79255
2025-05-29 15:09:41.497,89228,6829,3839,50654,79253
2025-05-29 15:09:41.504,89231,6823,3838,50660,79255
2025-05-29 15:09:41.527,89241,6833,3839,50656,79262
2025-05-29 15:09:41.529,89251,6831,3850,50662,79263
2025-05-29 15:09:41.537,89266,6836,3850,50667,79275
2025-05-29 15:09:41.548,89276,6839,3845,50659,79265
2025-05-29 15:09:41.556,89274,6844,3859,50655,79268
2025-05-29 15:09:41.565,89280,6835,3854,50674,79273
2025-05-29 15:09:41.595,89282,6855,3854,50669,79284
2025-05-29 15:09:41.596,89290,6854,3856,50669,79304
2025-05-29 15:09:41.597,89293,6857,3865,50672,79301
2025-05-29 15:09:41.608,89305,6868,3864,50674,79295
2025-05-29 15:09:41.616,89304,6874,3869,50672,79304
2025-05-29 15:09:41.628,89311,6865,3869,50668,79304
2025-05-29 15:09:41.636,89313,6880,3865,50675,79316
2025-05-29 15:09:41.660,89320,6886,3862,50678,79314
2025-05-29 15:09:41.661,89334,6890,3874,50684,79331
2025-05-29 15:09:41.668,89341,6896,3865,50691,79325
2025-05-29 15:09:41.676,89336,6904,3882,50696,79335
2025-05-29 15:09:41.688,89350,6895,3874,50699,79347
2025-05-29 15:09:41.696,89356,6907,3884,50690,79334
2025-05-29 15:09:41.709,89355,6906,3883,50683,79344
2025-05-29 15:09:41.727,89357,6915,3883,50683,79347
2025-05-29 15:09:41.729,89360,6924,3882,50694,79347
2025-05-29 15:09:41.737,89373,6920,3888,50702,79366
2025-05-29 15:09:41.748,89369,6925,3888,50700,79378
2025-05-29 15:09:41.757,89390,6937,3892,50702,79369
2025-05-29 15:09:41.768,89390,6939,3892,50705,79374
2025-05-29 15:09:41.794,89413,6951,3896,50698,79386
2025-05-29 15:09:41.795,89396,6961,3899,50697,79393
2025-05-29 15:09:41.797,89407,6959,3912,50709,79407
2025-05-29 15:09:41.808,89405,6954,3900,50712,79410
2025-05-29 15:09:41.817,89415,6966,3917,50716,79410
2025-05-29 15:09:41.828,89433,6969,3913,50715,79430
2025-05-29 15:09:41.836,89441,6981,3921,50708,79425
2025-05-29 15:09:41.862,89434,6978,3926,50725,79438
2025-05-29 15:09:41.864,89443,6985,3916,50727,79449
2025-05-29 15:09:41.868,89460,6992,3921,50723,79449
2025-05-29 15:09:41.876,89460,6989,3915,50742,79464
2025-05-29 15:09:41.888,89453,7000,3931,50739,79466
2025-05-29 15:09:41.896,89470,7000,3927,50743,79473
2025-05-29 15:09:41.908,89481,7006,3931,50736,79470
2025-05-29 15:09:41.931,89480,7017,3928,50746,79489
2025-05-29 15:09:41.932,89494,7019,3935,50749,79479
2025-05-29 15:09:41.937,89501,7023,3938,50746,79503
2025-05-29 15:09:41.948,89513,7033,3946,50752,79494
2025-05-29 15:09:41.956,89509,7031,3937,50743,79504
2025-05-29 15:09:41.968,89520,7043,3944,50747,79505
2025-05-29 15:09:41.976,89534,7052,3947,50761,79533
2025-05-29 15:09:41.998,89534,7046,3951,50760,79538
2025-05-29 15:09:41.999,89535,7054,3951,50771,79528
2025-05-29 15:09:42.009,89552,7055,3961,50770,79545
2025-05-29 15:09:42.016,89553,7071,3959,50766,79563
2025-05-29 15:09:42.028,89552,7064,3958,50773,79535
2025-05-29 15:09:42.040,89568,7082,3966,50763,79548
2025-05-29 15:09:42.065,89573,7088,3966,50782,79575
2025-05-29 15:09:42.067,89587,7088,3966,50771,79561
2025-05-29 15:09:42.068,89590,7104,3970,50774,79579
2025-05-29 15:09:42.080,89592,7101,3966,50792,79590
2025-05-29 15:09:42.089,89607,7105,3975,50786,79595
2025-05-29 15:09:42.100,89604,7112,3977,50799,79608
2025-05-29 15:09:42.108,89592,7121,3969,50799,79610
2025-05-29 15:09:42.139,89623,7117,3978,50792,79615
2025-05-29 15:09:42.142,89616,7122,3986,50804,79628
2025-05-29 15:09:42.144,89627,7135,3980,50806,79635
2025-05-29 15:09:42.148,89637,7131,3986,50809,79652
2025-05-29 15:09:42.161,89658,7146,3987,50812,79654
2025-05-29 15:09:42.169,89636,7143,3993,50810,79654
2025-05-29 15:09:42.181,89665,7151,3998,50800,79669
2025-05-29 15:09:42.211,89657,7154,3995,50818,79673
2025-05-29 15:09:42.213,89682,7167,4003,50820,79676
2025-05-29 15:09:42.214,89680,7177,4007,50820,79679
2025-05-29 15:09:42.220,89680,7179,3999,50822,79690
2025-05-29 15:09:42.228,89687,7177,4006,50825,79698
2025-05-29 15:09:42.240,89682,7174,4009,50821,79704
2025-05-29 15:09:42.248,89649,7167,4009,50836,79691
2025-05-29 15:09:42.281,89633,7154,4008,50809,79679
2025-05-29 15:09:42.283,89590,7130,4005,50809,79672
2025-05-29 15:09:42.285,89569,7109,3995,50805,79632
2025-05-29 15:09:42.288,89541,7073,3987,50793,79592
2025-05-29 15:09:42.300,89508,7040,3976,50792,79559
2025-05-29 15:09:42.309,89497,7010,3964,50777,79531
2025-05-29 15:09:42.320,89457,6988,3955,50761,79511
2025-05-29 15:09:42.328,89452,6953,3938,50752,79489
2025-05-29 15:09:42.349,89423,6923,3933,50745,79461
2025-05-29 15:09:42.350,89408,6906,3918,50753,79442
2025-05-29 15:09:42.360,89380,6883,3912,50748,79424
2025-05-29 15:09:42.369,89369,6878,3903,50732,79417
2025-05-29 15:09:42.379,89362,6854,3897,50726,79395
2025-05-29 15:09:42.388,89360,6851,3889,50726,79384
2025-05-29 15:09:42.415,89340,6825,3895,50724,79382
2025-05-29 15:09:42.416,89328,6823,3881,50712,79370
2025-05-29 15:09:42.420,89315,6805,3876,50714,79350
2025-05-29 15:09:42.427,89297,6798,3862,50707,79339
2025-05-29 15:09:42.441,89288,6793,3861,50697,79325
2025-05-29 15:09:42.452,89277,6771,3862,50709,79317
2025-05-29 15:09:42.460,89281,6766,3857,50710,79313
2025-05-29 15:09:42.480,89256,6758,3857,50690,79305
2025-05-29 15:09:42.482,89255,6752,3853,50687,79277
2025-05-29 15:09:42.492,89256,6737,3851,50691,79263
2025-05-29 15:09:42.500,89250,6737,3847,50686,79267
2025-05-29 15:09:42.512,89237,6734,3843,50690,79273
2025-05-29 15:09:42.521,89231,6728,3842,50674,79253
2025-05-29 15:09:42.547,89236,6714,3841,50673,79251
2025-05-29 15:09:42.549,89229,6723,3833,50685,79250
2025-05-29 15:09:42.551,89213,6714,3837,50669,79255
2025-05-29 15:09:42.560,89212,6727,3839,50676,79244
2025-05-29 15:09:42.572,89211,6702,3839,50659,79236
2025-05-29 15:09:42.580,89215,6712,3836,50669,79218
2025-05-29 15:09:42.592,89194,6708,3839,50644,79227
2025-05-29 15:09:42.614,89206,6703,3837,50666,79221
2025-05-29 15:09:42.615,89197,6706,3835,50666,79203
2025-05-29 15:09:42.621,89202,6698,3833,50653,79202
2025-05-29 15:09:42.633,89191,6688,3828,50651,79212
2025-05-29 15:09:42.641,89195,6696,3827,50649,79187
2025-05-29 15:09:42.652,89182,6694,3826,50652,79182
2025-05-29 15:09:42.660,89186,6694,3823,50650,79189
2025-05-29 15:09:42.686,89188,6681,3828,50647,79182
2025-05-29 15:09:42.687,89188,6691,3833,50655,79185
2025-05-29 15:09:42.692,89186,6693,3830,50648,79171
2025-05-29 15:09:42.701,89191,6695,3832,50639,79169
2025-05-29 15:09:42.712,89185,6696,3821,50645,79167
2025-05-29 15:09:42.720,89191,6688,3832,50645,79165
2025-05-29 15:09:42.732,89181,6702,3826,50641,79179
2025-05-29 15:09:42.756,89181,6702,3826,50641,79179
2025-05-29 15:09:42.757,89203,6703,3835,50640,79165
2025-05-29 15:09:42.759,89208,6703,3838,50640,79171
2025-05-29 15:09:42.760,89199,6706,3834,50640,79182
2025-05-29 15:09:42.772,89202,6712,3833,50646,79170
2025-05-29 15:09:42.779,89197,6707,3831,50635,79171
2025-05-29 15:09:42.792,89208,6716,3848,50635,79166
2025-05-29 15:09:42.800,89199,6716,3843,50633,79169
2025-05-29 15:09:42.824,89214,6718,3841,50630,79179
2025-05-29 15:09:42.825,89203,6719,3843,50638,79171
2025-05-29 15:09:42.832,89216,6722,3845,50633,79163
2025-05-29 15:09:42.840,89218,6718,3842,50636,79181
2025-05-29 15:09:42.853,89215,6730,3839,50643,79176
2025-05-29 15:09:42.860,89216,6725,3848,50633,79179
2025-05-29 15:09:42.871,89221,6728,3847,50634,79184
2025-05-29 15:09:42.891,89228,6735,3857,50633,79180
2025-05-29 15:09:42.893,89230,6737,3850,50627,79180
2025-05-29 15:09:42.900,89233,6738,3858,50647,79186
2025-05-29 15:09:42.912,89246,6742,3853,50647,79168
2025-05-29 15:09:42.924,89240,6749,3871,50637,79192
2025-05-29 15:09:42.932,89246,6748,3857,50628,79195
2025-05-29 15:09:42.959,89249,6755,3855,50641,79194
2025-05-29 15:09:42.961,89260,6760,3852,50645,79198
2025-05-29 15:09:42.964,89250,6755,3865,50644,79197
2025-05-29 15:09:42.972,89258,6760,3853,50649,79185
2025-05-29 15:09:42.984,89265,6769,3863,50652,79220
2025-05-29 15:09:42.992,89277,6767,3865,50651,79214
2025-05-29 15:09:43.005,89271,6771,3880,50655,79205
2025-05-29 15:09:43.028,89281,6779,3875,50640,79210
2025-05-29 15:09:43.029,89277,6780,3872,50645,79227
2025-05-29 15:09:43.032,89303,6790,3881,50642,79215
2025-05-29 15:09:43.044,89293,6786,3880,50657,79232
2025-05-29 15:09:43.052,89289,6802,3875,50649,79221
2025-05-29 15:09:43.063,89299,6798,3877,50650,79246
2025-05-29 15:09:43.073,89308,6805,3889,50655,79251
2025-05-29 15:09:43.095,89320,6814,3884,50659,79246
2025-05-29 15:09:43.096,89323,6815,3878,50672,79259
2025-05-29 15:09:43.105,89335,6819,3880,50670,79264
2025-05-29 15:09:43.112,89343,6822,3891,50676,79272
2025-05-29 15:09:43.124,89336,6839,3890,50671,79275
2025-05-29 15:09:43.132,89365,6838,3897,50682,79286
2025-05-29 15:09:43.160,89367,6843,3906,50691,79283
2025-05-29 15:09:43.162,89373,6841,3903,50702,79297
2025-05-29 15:09:43.164,89371,6844,3906,50701,79312
2025-05-29 15:09:43.172,89380,6855,3905,50706,79311
2025-05-29 15:09:43.184,89384,6864,3914,50691,79327
2025-05-29 15:09:43.193,89386,6854,3909,50695,79331
2025-05-29 15:09:43.204,89384,6871,3918,50697,79332
2025-05-29 15:09:43.228,89404,6868,3912,50699,79328
2025-05-29 15:09:43.230,89401,6876,3917,50699,79341
2025-05-29 15:09:43.233,89400,6880,3926,50704,79344
2025-05-29 15:09:43.243,89412,6888,3928,50701,79335
2025-05-29 15:09:43.252,89417,6896,3926,50701,79351
2025-05-29 15:09:43.265,89429,6896,3934,50720,79364
2025-05-29 15:09:43.273,89428,6898,3921,50718,79373
2025-05-29 15:09:43.298,89440,6908,3934,50720,79373
2025-05-29 15:09:43.299,89445,6913,3930,50717,79368
2025-05-29 15:09:43.304,89443,6920,3940,50719,79399
2025-05-29 15:09:43.312,89448,6919,3946,50725,79386
2025-05-29 15:09:43.324,89460,6929,3937,50728,79406
2025-05-29 15:09:43.337,89456,6932,3941,50720,79387
2025-05-29 15:09:43.344,89468,6936,3947,50735,79414
2025-05-29 15:09:43.365,89478,6948,3945,50737,79429
2025-05-29 15:09:43.367,89486,6953,3948,50742,79416
2025-05-29 15:09:43.377,89485,6961,3947,50734,79432
2025-05-29 15:09:43.384,89504,6955,3970,50730,79443
2025-05-29 15:09:43.396,89499,6978,3958,50750,79445
2025-05-29 15:09:43.404,89498,6965,3963,50743,79454
2025-05-29 15:09:43.434,89506,6977,3964,50748,79469
2025-05-29 15:09:43.436,89516,6987,3968,50758,79471
2025-05-29 15:09:43.437,89523,6981,3970,50762,79479
2025-05-29 15:09:43.445,89530,6989,3971,50758,79490
2025-05-29 15:09:43.456,89539,7002,3964,50770,79489
2025-05-29 15:09:43.464,89545,6998,3965,50759,79495
2025-05-29 15:09:43.476,89558,7009,3969,50777,79511
2025-05-29 15:09:43.502,89546,7015,3981,50777,79520
2025-05-29 15:09:43.503,89567,7019,3984,50780,79529
2025-05-29 15:09:43.505,89572,7026,3982,50774,79526
2025-05-29 15:09:43.516,89580,7032,3989,50789,79546
2025-05-29 15:09:43.524,89583,7040,3990,50790,79550
2025-05-29 15:09:43.536,89596,7062,3993,50797,79546
2025-05-29 15:09:43.544,89584,7047,3997,50790,79557
2025-05-29 15:09:43.571,89605,7068,3996,50797,79570
2025-05-29 15:09:43.573,89603,7058,4002,50801,79577
2025-05-29 15:09:43.575,89598,7075,4008,50812,79587
2025-05-29 15:09:43.584,89623,7070,4014,50816,79595
2025-05-29 15:09:43.595,89633,7084,4012,50808,79595
2025-05-29 15:09:43.604,89662,7084,4013,50827,79599
2025-05-29 15:09:43.616,89641,7083,4014,50812,79621
2025-05-29 15:09:43.639,89642,7096,4019,50820,79630
2025-05-29 15:09:43.641,89658,7093,4022,50818,79633
2025-05-29 15:09:43.644,89663,7100,4026,50828,79636
2025-05-29 15:09:43.657,89646,7111,4029,50827,79651
2025-05-29 15:09:43.664,89669,7117,4031,50827,79662
2025-05-29 15:09:43.676,89670,7125,4032,50829,79667
2025-05-29 15:09:43.684,89678,7119,4032,50845,79673
2025-05-29 15:09:43.707,89690,7130,4041,50844,79673
2025-05-29 15:09:43.708,89687,7138,4044,50843,79676
2025-05-29 15:09:43.716,89677,7130,4047,50851,79673
2025-05-29 15:09:43.724,89657,7120,4043,50832,79678
2025-05-29 15:09:43.736,89631,7099,4039,50835,79649
2025-05-29 15:09:43.744,89596,7078,4031,50821,79635
2025-05-29 15:09:43.776,89576,7043,4022,50810,79609
2025-05-29 15:09:43.778,89543,7019,4014,50807,79582
2025-05-29 15:09:43.779,89513,6989,4001,50796,79544
2025-05-29 15:09:43.783,89496,6964,3997,50802,79523
2025-05-29 15:09:43.796,89470,6939,3982,50782,79506
2025-05-29 15:09:43.804,89442,6915,3967,50781,79486
2025-05-29 15:09:43.817,89428,6895,3958,50770,79458
2025-05-29 15:09:43.848,89407,6877,3959,50765,79461
2025-05-29 15:09:43.850,89391,6860,3944,50757,79434
2025-05-29 15:09:43.851,89377,6848,3938,50758,79424
2025-05-29 15:09:43.855,89363,6838,3936,50754,79408
2025-05-29 15:09:43.868,89350,6821,3936,50743,79405
2025-05-29 15:09:43.876,89342,6833,3932,50742,79403
2025-05-29 15:09:43.888,89334,6811,3927,50748,79389
2025-05-29 15:09:43.896,89329,6809,3920,50738,79379
2025-05-29 15:09:43.918,89315,6793,3920,50739,79371
2025-05-29 15:09:43.919,89298,6788,3910,50733,79370
2025-05-29 15:09:43.928,89285,6781,3910,50735,79347
2025-05-29 15:09:43.937,89290,6778,3913,50737,79353
2025-05-29 15:09:43.949,89278,6763,3911,50719,79348
2025-05-29 15:09:43.955,89274,6758,3904,50719,79340
2025-05-29 15:09:43.986,89278,6750,3899,50729,79323
2025-05-29 15:09:43.987,89272,6754,3899,50726,79325
2025-05-29 15:09:43.989,89259,6754,3897,50726,79331
2025-05-29 15:09:43.996,89259,6747,3891,50720,79312
2025-05-29 15:09:44.008,89248,6760,3901,50720,79314
2025-05-29 15:09:44.017,89258,6746,3895,50714,79318
2025-05-29 15:09:44.028,89247,6750,3894,50718,79317
2025-05-29 15:09:44.055,89253,6744,3894,50711,79302
2025-05-29 15:09:44.057,89237,6747,3889,50715,79302
2025-05-29 15:09:44.058,89233,6740,3889,50720,79299
2025-05-29 15:09:44.068,89234,6735,3883,50713,79299
2025-05-29 15:09:44.076,89234,6730,3893,50708,79284
2025-05-29 15:09:44.089,89223,6728,3869,50717,79303
2025-05-29 15:09:44.096,89227,6725,3891,50718,79282
2025-05-29 15:09:44.124,89220,6720,3887,50715,79286
2025-05-29 15:09:44.127,89207,6723,3890,50697,79271
2025-05-29 15:09:44.130,89218,6732,3887,50711,79275
2025-05-29 15:09:44.136,89223,6722,3881,50695,79270
2025-05-29 15:09:44.148,89212,6727,3879,50708,79269
2025-05-29 15:09:44.157,89223,6731,3885,50701,79273
2025-05-29 15:09:44.169,89213,6726,3884,50702,79272
2025-05-29 15:09:44.195,89224,6719,3877,50710,79280
2025-05-29 15:09:44.197,89212,6731,3883,50709,79271
2025-05-29 15:09:44.198,89216,6732,3885,50699,79261
2025-05-29 15:09:44.209,89216,6729,3887,50695,79269
2025-05-29 15:09:44.216,89209,6745,3883,50702,79276
2025-05-29 15:09:44.228,89212,6735,3892,50700,79269
2025-05-29 15:09:44.236,89227,6738,3893,50714,79277
2025-05-29 15:09:44.262,89237,6747,3893,50711,79271
2025-05-29 15:09:44.264,89214,6739,3881,50698,79270
2025-05-29 15:09:44.268,89232,6753,3896,50704,79281
2025-05-29 15:09:44.280,89239,6749,3881,50700,79286
2025-05-29 15:09:44.289,89226,6751,3894,50700,79286
2025-05-29 15:09:44.300,89240,6753,3892,50706,79286
2025-05-29 15:09:44.309,89246,6760,3897,50708,79279
2025-05-29 15:09:44.329,89254,6761,3903,50707,79287
2025-05-29 15:09:44.330,89244,6779,3910,50710,79292
2025-05-29 15:09:44.340,89248,6778,3896,50702,79299
2025-05-29 15:09:44.344,89248,6778,3896,50702,79299
2025-05-29 15:09:44.348,89244,6763,3904,50712,79294
2025-05-29 15:09:44.360,89241,6769,3904,50721,79305
2025-05-29 15:09:44.368,89265,6782,3908,50711,79298
2025-05-29 15:09:44.395,89237,6783,3907,50706,79306
2025-05-29 15:09:44.396,89263,6779,3909,50701,79298
2025-05-29 15:09:44.400,89265,6784,3909,50714,79313
2025-05-29 15:09:44.408,89272,6789,3916,50710,79311
2025-05-29 15:09:44.421,89262,6800,3910,50712,79317
2025-05-29 15:09:44.428,89280,6805,3921,50710,79327
2025-05-29 15:09:44.440,89266,6810,3919,50717,79330
2025-05-29 15:09:44.462,89288,6805,3927,50726,79333
2025-05-29 15:09:44.464,89286,6814,3919,50724,79340
2025-05-29 15:09:44.468,89296,6814,3918,50723,79340
2025-05-29 15:09:44.480,89288,6822,3927,50722,79348
2025-05-29 15:09:44.488,89290,6821,3921,50727,79356
2025-05-29 15:09:44.500,89299,6829,3934,50732,79345
2025-05-29 15:09:44.508,89308,6836,3926,50732,79356
2025-05-29 15:09:44.532,89315,6832,3930,50744,79354
2025-05-29 15:09:44.534,89320,6843,3926,50743,79372
2025-05-29 15:09:44.540,89329,6846,3937,50744,79370
2025-05-29 15:09:44.548,89327,6858,3936,50739,79371
2025-05-29 15:09:44.561,89328,6853,3931,50744,79390
2025-05-29 15:09:44.568,89337,6865,3944,50743,79381
2025-05-29 15:09:44.580,89350,6862,3953,50752,79401
2025-05-29 15:09:44.602,89353,6866,3937,50768,79401
2025-05-29 15:09:44.604,89347,6875,3942,50764,79407
2025-05-29 15:09:44.609,89342,6876,3930,50746,79411
2025-05-29 15:09:44.620,89360,6884,3952,50762,79421
2025-05-29 15:09:44.628,89393,6879,3960,50754,79420
2025-05-29 15:09:44.640,89376,6893,3952,50751,79426
2025-05-29 15:09:44.647,89364,6897,3962,50756,79424
2025-05-29 15:09:44.669,89382,6903,3963,50768,79424
2025-05-29 15:09:44.670,89385,6895,3955,50764,79430
2025-05-29 15:09:44.681,89406,6910,3964,50776,79444
2025-05-29 15:09:44.688,89398,6916,3964,50764,79451
2025-05-29 15:09:44.700,89392,6925,3971,50768,79468
2025-05-29 15:09:44.708,89405,6925,3968,50768,79458
2025-05-29 15:09:44.737,89412,6927,3968,50783,79471
2025-05-29 15:09:44.739,89415,6925,3970,50773,79471
2025-05-29 15:09:44.740,89421,6936,3977,50786,79482
2025-05-29 15:09:44.752,89432,6952,3978,50784,79487
2025-05-29 15:09:44.760,89418,6952,3980,50794,79473
2025-05-29 15:09:44.771,89436,6950,3972,50790,79490
2025-05-29 15:09:44.780,89441,6956,3985,50794,79496
2025-05-29 15:09:44.805,89443,6969,3984,50792,79513
2025-05-29 15:09:44.806,89451,6968,3986,50796,79515
2025-05-29 15:09:44.811,89450,6972,3992,50799,79521
2025-05-29 15:09:44.820,89473,6982,3999,50794,79520
2025-05-29 15:09:44.832,89471,6991,3994,50811,79533
2025-05-29 15:09:44.839,89488,6992,3997,50807,79548
2025-05-29 15:09:44.852,89484,6997,4005,50823,79560
2025-05-29 15:09:44.873,89492,7008,4014,50825,79573
2025-05-29 15:09:44.875,89496,7014,4011,50819,79595
2025-05-29 15:09:44.880,89498,7019,4011,50834,79594
2025-05-29 15:09:44.892,89518,7027,4016,50834,79601
2025-05-29 15:09:44.900,89520,7028,4005,50832,79605
2025-05-29 15:09:44.912,89524,7035,4016,50840,79624
2025-05-29 15:09:44.921,89540,7036,4024,50838,79611
2025-05-29 15:09:44.942,89537,7046,4030,50840,79629
2025-05-29 15:09:44.943,89536,7050,4028,50840,79639
2025-05-29 15:09:44.953,89561,7062,4030,50855,79633
2025-05-29 15:09:44.961,89558,7063,4040,50855,79663
2025-05-29 15:09:44.972,89575,7064,4035,50862,79677
2025-05-29 15:09:44.980,89577,7085,4037,50872,79684
2025-05-29 15:09:45.012,89594,7089,4046,50872,79708
2025-05-29 15:09:45.013,89591,7088,4050,50881,79702
2025-05-29 15:09:45.015,89604,7095,4038,50884,79723
2025-05-29 15:09:45.021,89610,7096,4047,50898,79749
2025-05-29 15:09:45.032,89608,7113,4062,50887,79749
2025-05-29 15:09:45.040,89619,7103,4057,50896,79754
2025-05-29 15:09:45.052,89620,7117,4061,50904,79767
2025-05-29 15:09:45.059,89613,7116,4065,50911,79766
2025-05-29 15:09:45.079,89586,7103,4063,50899,79746
2025-05-29 15:09:45.081,89551,7085,4059,50899,79737
2025-05-29 15:09:45.092,89530,7055,4042,50885,79703
2025-05-29 15:09:45.100,89475,7009,4040,50882,79666
2025-05-29 15:09:45.112,89432,6983,4021,50856,79636
2025-05-29 15:09:45.120,89398,6944,4015,50844,79605
2025-05-29 15:09:45.146,89351,6907,3997,50843,79570
2025-05-29 15:09:45.147,89313,6880,3982,50831,79543
2025-05-29 15:09:45.152,89291,6855,3979,50822,79519
2025-05-29 15:09:45.164,89269,6831,3969,50808,79492
2025-05-29 15:09:45.172,89254,6810,3965,50810,79480
2025-05-29 15:09:45.184,89238,6795,3942,50794,79462
2025-05-29 15:09:45.192,89229,6787,3936,50797,79446
2025-05-29 15:09:45.212,89194,6775,3938,50788,79439
2025-05-29 15:09:45.214,89195,6764,3924,50780,79428
2025-05-29 15:09:45.225,89177,6756,3921,50774,79410
2025-05-29 15:09:45.233,89166,6749,3914,50767,79404
2025-05-29 15:09:45.244,89147,6740,3909,50772,79400
2025-05-29 15:09:45.252,89132,6728,3902,50761,79389
2025-05-29 15:09:45.279,89113,6716,3905,50767,79384
2025-05-29 15:09:45.281,89108,6712,3900,50744,79364
2025-05-29 15:09:45.284,89099,6713,3901,50755,79344
2025-05-29 15:09:45.292,89096,6702,3898,50753,79350
2025-05-29 15:09:45.304,89091,6692,3894,50752,79333
2025-05-29 15:09:45.312,89087,6687,3887,50751,79339
2025-05-29 15:09:45.324,89093,6692,3888,50748,79319
2025-05-29 15:09:45.350,89080,6674,3884,50751,79334
2025-05-29 15:09:45.352,89063,6685,3888,50750,79307
2025-05-29 15:09:45.353,89070,6678,3877,50751,79325
2025-05-29 15:09:45.364,89059,6670,3873,50743,79309
2025-05-29 15:09:45.372,89055,6669,3875,50736,79303
2025-05-29 15:09:45.384,89045,6659,3872,50735,79277
2025-05-29 15:09:45.392,89040,6658,3867,50713,79280
2025-05-29 15:09:45.420,89032,6660,3865,50740,79271
2025-05-29 15:09:45.421,89013,6656,3862,50719,79258
2025-05-29 15:09:45.424,89010,6645,3858,50721,79263
2025-05-29 15:09:45.432,89010,6635,3865,50725,79255
2025-05-29 15:09:45.445,89007,6648,3855,50721,79258
2025-05-29 15:09:45.452,89007,6638,3861,50711,79248
2025-05-29 15:09:45.464,88983,6633,3859,50710,79238
2025-05-29 15:09:45.488,89012,6632,3852,50705,79231
2025-05-29 15:09:45.489,88986,6629,3854,50717,79229
2025-05-29 15:09:45.492,88976,6639,3853,50714,79224
2025-05-29 15:09:45.504,88973,6631,3853,50712,79213
2025-05-29 15:09:45.513,88981,6629,3859,50692,79217
2025-05-29 15:09:45.524,88985,6635,3848,50711,79205
2025-05-29 15:09:45.532,89002,6634,3848,50708,79221
2025-05-29 15:09:45.555,88980,6632,3851,50706,79217
2025-05-29 15:09:45.556,88987,6633,3852,50709,79221
2025-05-29 15:09:45.565,88985,6638,3851,50693,79228
2025-05-29 15:09:45.572,88987,6639,3854,50697,79209
2025-05-29 15:09:45.585,88993,6644,3851,50702,79223
2025-05-29 15:09:45.592,88984,6636,3857,50701,79217
2025-05-29 15:09:45.624,88990,6641,3854,50712,79204
2025-05-29 15:09:45.626,88982,6654,3853,50707,79210
2025-05-29 15:09:45.629,88984,6655,3847,50699,79210
2025-05-29 15:09:45.636,88982,6656,3851,50709,79211
2025-05-29 15:09:45.644,88992,6650,3852,50709,79240
2025-05-29 15:09:45.657,88976,6657,3857,50699,79205
2025-05-29 15:09:45.664,89002,6657,3860,50708,79214
2025-05-29 15:09:45.696,88990,6670,3860,50695,79210
2025-05-29 15:09:45.697,88988,6663,3856,50704,79208
2025-05-29 15:09:45.700,88995,6662,3859,50705,79204
2025-05-29 15:09:45.704,88990,6669,3864,50698,79214
2025-05-29 15:09:45.716,88996,6669,3862,50703,79217
2025-05-29 15:09:45.725,89000,6675,3860,50699,79210
2025-05-29 15:09:45.736,88995,6671,3856,50697,79214
2025-05-29 15:09:45.744,88999,6675,3866,50696,79209
2025-05-29 15:09:45.769,89009,6679,3860,50699,79211
2025-05-29 15:09:45.771,89006,6682,3866,50694,79215
2025-05-29 15:09:45.776,89027,6680,3875,50696,79215
2025-05-29 15:09:45.785,89011,6678,3856,50699,79218
2025-05-29 15:09:45.797,89005,6692,3872,50698,79220
2025-05-29 15:09:45.805,89043,6693,3869,50702,79214
2025-05-29 15:09:45.816,89031,6703,3869,50695,79217
2025-05-29 15:09:45.839,89041,6692,3871,50695,79218
2025-05-29 15:09:45.841,89030,6704,3872,50693,79227
2025-05-29 15:09:45.845,89040,6709,3868,50709,79227
2025-05-29 15:09:45.855,89033,6715,3869,50693,79217
2025-05-29 15:09:45.864,89054,6716,3872,50705,79234
2025-05-29 15:09:45.877,89037,6717,3879,50691,79225
2025-05-29 15:09:45.884,89040,6728,3871,50694,79230
2025-05-29 15:09:45.909,89050,6731,3879,50689,79243
2025-05-29 15:09:45.912,89043,6737,3891,50690,79241
2025-05-29 15:09:45.916,89053,6735,3886,50697,79245
2025-05-29 15:09:45.925,89037,6747,3880,50703,79265
2025-05-29 15:09:45.936,89053,6740,3886,50718,79265
2025-05-29 15:09:45.945,89056,6754,3896,50690,79258
2025-05-29 15:09:45.957,89067,6751,3889,50708,79274
2025-05-29 15:09:45.982,89086,6751,3891,50712,79291
2025-05-29 15:09:45.984,89082,6768,3891,50730,79291
2025-05-29 15:09:45.985,89099,6770,3894,50732,79301
2025-05-29 15:09:45.997,89080,6772,3898,50721,79295
2025-05-29 15:09:46.004,89114,6784,3900,50722,79300
2025-05-29 15:09:46.017,89109,6780,3903,50717,79300
2025-05-29 15:09:46.024,89130,6788,3904,50721,79313
2025-05-29 15:09:46.055,89139,6794,3901,50716,79307
2025-05-29 15:09:46.057,89138,6799,3912,50725,79317
2025-05-29 15:09:46.058,89137,6807,3910,50730,79328
2025-05-29 15:09:46.064,89151,6810,3910,50739,79308
2025-05-29 15:09:46.077,89156,6806,3919,50725,79320
2025-05-29 15:09:46.089,89136,6815,3909,50739,79332
2025-05-29 15:09:46.096,89165,6818,3925,50725,79339
2025-05-29 15:09:46.124,89143,6822,3921,50732,79340
2025-05-29 15:09:46.126,89149,6841,3923,50721,79346
2025-05-29 15:09:46.128,89158,6836,3927,50730,79346
2025-05-29 15:09:46.137,89165,6838,3922,50732,79350
2025-05-29 15:09:46.149,89174,6853,3928,50734,79354
2025-05-29 15:09:46.153,89174,6853,3928,50734,79354
2025-05-29 15:09:46.157,89182,6858,3929,50733,79361
2025-05-29 15:09:46.168,89194,6856,3930,50744,79394
2025-05-29 15:09:46.196,89200,6885,3938,50731,79385
2025-05-29 15:09:46.198,89213,6868,3940,50751,79401
2025-05-29 15:09:46.200,89200,6889,3937,50757,79396
2025-05-29 15:09:46.208,89219,6882,3946,50756,79411
2025-05-29 15:09:46.217,89221,6903,3944,50763,79422
2025-05-29 15:09:46.228,89227,6896,3940,50754,79423
2025-05-29 15:09:46.236,89227,6915,3950,50762,79439
2025-05-29 15:09:46.271,89235,6908,3954,50766,79445
2025-05-29 15:09:46.274,89247,6904,3950,50781,79459
2025-05-29 15:09:46.276,89264,6918,3952,50779,79464
2025-05-29 15:09:46.278,89264,6913,3959,50782,79464
2025-05-29 15:09:46.288,89269,6924,3964,50783,79474
2025-05-29 15:09:46.296,89261,6908,3964,50780,79481
2025-05-29 15:09:46.309,89276,6923,3965,50784,79497
2025-05-29 15:09:46.316,89276,6920,3966,50781,79493
2025-05-29 15:09:46.344,89290,6933,3969,50791,79485
2025-05-29 15:09:46.347,89281,6935,3967,50791,79515
2025-05-29 15:09:46.349,89311,6941,3969,50790,79523
2025-05-29 15:09:46.356,89308,6957,3970,50799,79523
2025-05-29 15:09:46.369,89311,6966,3977,50806,79541
2025-05-29 15:09:46.377,89311,6968,3978,50803,79544
2025-05-29 15:09:46.388,89311,6978,3980,50811,79546
2025-05-29 15:09:46.417,89318,6967,3977,50809,79550
2025-05-29 15:09:46.419,89299,6984,3983,50805,79555
2025-05-29 15:09:46.421,89279,6973,3978,50808,79540
2025-05-29 15:09:46.429,89254,6958,3975,50800,79513
2025-05-29 15:09:46.436,89206,6917,3967,50797,79494
2025-05-29 15:09:46.448,89185,6904,3960,50771,79443
2025-05-29 15:09:46.455,89139,6856,3938,50767,79428
2025-05-29 15:09:46.486,89130,6836,3935,50752,79410
2025-05-29 15:09:46.488,89091,6796,3918,50753,79375
2025-05-29 15:09:46.489,89075,6774,3906,50734,79341
2025-05-29 15:09:46.496,89049,6755,3895,50736,79317
2025-05-29 15:09:46.509,89034,6734,3885,50725,79304
2025-05-29 15:09:46.520,89005,6717,3876,50717,79302
2025-05-29 15:09:46.528,88994,6703,3870,50726,79273
2025-05-29 15:09:46.554,88986,6696,3863,50710,79263
2025-05-29 15:09:46.556,88976,6673,3868,50712,79275
2025-05-29 15:09:46.560,88955,6676,3849,50709,79251
2025-05-29 15:09:46.569,88964,6664,3859,50709,79238
2025-05-29 15:09:46.580,88953,6662,3846,50705,79248
2025-05-29 15:09:46.588,88943,6652,3858,50706,79226
2025-05-29 15:09:46.600,88939,6651,3839,50690,79222
2025-05-29 15:09:46.623,88929,6636,3847,50689,79205
2025-05-29 15:09:46.625,88911,6633,3825,50689,79177
2025-05-29 15:09:46.629,88904,6622,3830,50683,79185
2025-05-29 15:09:46.640,88889,6613,3825,50684,79172
2025-05-29 15:09:46.648,88885,6603,3811,50684,79170
2025-05-29 15:09:46.660,88878,6598,3820,50677,79165
2025-05-29 15:09:46.668,88875,6604,3798,50662,79145
2025-05-29 15:09:46.694,88870,6595,3805,50670,79154
2025-05-29 15:09:46.696,88869,6594,3786,50667,79135
2025-05-29 15:09:46.700,88862,6601,3799,50671,79138
2025-05-29 15:09:46.708,88856,6588,3781,50661,79126
2025-05-29 15:09:46.720,88848,6587,3792,50666,79119
2025-05-29 15:09:46.729,88847,6588,3778,50661,79121
2025-05-29 15:09:46.739,88840,6580,3775,50651,79102
2025-05-29 15:09:46.764,88852,6580,3781,50659,79105
2025-05-29 15:09:46.766,88836,6574,3772,50652,79103
2025-05-29 15:09:46.768,88824,6571,3785,50652,79098
2025-05-29 15:09:46.780,88830,6573,3792,50646,79085
2025-05-29 15:09:46.788,88829,6568,3782,50653,79080
2025-05-29 15:09:46.799,88824,6571,3794,50649,79071
2025-05-29 15:09:46.808,88823,6559,3785,50641,79077
2025-05-29 15:09:46.831,88823,6564,3793,50638,79069
2025-05-29 15:09:46.833,88806,6559,3776,50633,79061
2025-05-29 15:09:46.840,88812,6566,3794,50637,79072
2025-05-29 15:09:46.848,88817,6568,3777,50636,79047
2025-05-29 15:09:46.860,88814,6567,3791,50627,79064
2025-05-29 15:09:46.868,88819,6568,3776,50629,79045
2025-05-29 15:09:46.880,88813,6562,3781,50638,79047
2025-05-29 15:09:46.901,88815,6574,3780,50651,79061
2025-05-29 15:09:46.902,88818,6568,3774,50640,79044
2025-05-29 15:09:46.908,88818,6577,3793,50632,79056
2025-05-29 15:09:46.920,88828,6577,3782,50635,79057
2025-05-29 15:09:46.928,88818,6591,3786,50634,79053
2025-05-29 15:09:46.940,88830,6586,3787,50632,79059
2025-05-29 15:09:46.968,88829,6591,3777,50631,79061
2025-05-29 15:09:46.969,88838,6593,3786,50638,79060
2025-05-29 15:09:46.971,88835,6596,3774,50627,79072
2025-05-29 15:09:46.980,88836,6598,3778,50630,79070
2025-05-29 15:09:46.992,88839,6602,3786,50638,79063
2025-05-29 15:09:46.999,88840,6604,3791,50626,79069
2025-05-29 15:09:47.011,88837,6607,3788,50630,79061
2025-05-29 15:09:47.036,88853,6605,3784,50634,79065
2025-05-29 15:09:47.038,88845,6616,3791,50636,79065
2025-05-29 15:09:47.040,88853,6612,3789,50637,79067
2025-05-29 15:09:47.052,88850,6621,3791,50633,79060
2025-05-29 15:09:47.060,88838,6618,3791,50639,79067
2025-05-29 15:09:47.072,88859,6625,3791,50637,79075
2025-05-29 15:09:47.079,88856,6617,3794,50641,79073
2025-05-29 15:09:47.105,88875,6639,3792,50629,79089
2025-05-29 15:09:47.106,88867,6635,3798,50633,79093
2025-05-29 15:09:47.112,88864,6639,3802,50642,79086
2025-05-29 15:09:47.121,88879,6649,3808,50638,79095
2025-05-29 15:09:47.133,88883,6648,3801,50642,79093
2025-05-29 15:09:47.140,88887,6655,3804,50649,79098
2025-05-29 15:09:47.151,88886,6649,3803,50646,79101
2025-05-29 15:09:47.174,88890,6658,3805,50645,79105
2025-05-29 15:09:47.175,88905,6660,3803,50641,79100
2025-05-29 15:09:47.180,88902,6668,3800,50653,79108
2025-05-29 15:09:47.192,88908,6671,3811,50648,79113
2025-05-29 15:09:47.200,88918,6670,3814,50658,79123
2025-05-29 15:09:47.212,88930,6680,3815,50663,79120
2025-05-29 15:09:47.220,88914,6683,3808,50670,79132
2025-05-29 15:09:47.242,88913,6697,3823,50656,79139
2025-05-29 15:09:47.244,88932,6697,3819,50680,79148
2025-05-29 15:09:47.253,88936,6702,3820,50670,79149
2025-05-29 15:09:47.259,88937,6713,3814,50675,79155
2025-05-29 15:09:47.272,88952,6716,3824,50677,79150
2025-05-29 15:09:47.280,88963,6717,3820,50682,79168
2025-05-29 15:09:47.312,88961,6723,3825,50672,79160
2025-05-29 15:09:47.313,88966,6725,3832,50691,79167
2025-05-29 15:09:47.315,88970,6724,3831,50685,79183
2025-05-29 15:09:47.319,88980,6741,3837,50686,79189
2025-05-29 15:09:47.332,88994,6743,3840,50692,79193
2025-05-29 15:09:47.341,88992,6758,3839,50707,79186
2025-05-29 15:09:47.352,89000,6756,3836,50698,79201
2025-05-29 15:09:47.360,89005,6763,3844,50700,79206
2025-05-29 15:09:47.380,88998,6762,3837,50713,79207
2025-05-29 15:09:47.381,89008,6772,3849,50698,79209
2025-05-29 15:09:47.392,89013,6775,3837,50709,79218
2025-05-29 15:09:47.404,89033,6779,3844,50701,79251
2025-05-29 15:09:47.412,89045,6790,3847,50703,79244
2025-05-29 15:09:47.419,89045,6797,3856,50719,79257
2025-05-29 15:09:47.448,89050,6804,3855,50713,79261
2025-05-29 15:09:47.449,89061,6805,3861,50702,79279
2025-05-29 15:09:47.453,89051,6813,3858,50699,79276
2025-05-29 15:09:47.464,89054,6814,3858,50709,79283
2025-05-29 15:09:47.472,89064,6818,3866,50695,79274
2025-05-29 15:09:47.484,89078,6814,3868,50706,79280
2025-05-29 15:09:47.492,89072,6821,3867,50695,79280
2025-05-29 15:09:47.518,89078,6824,3870,50708,79299
2025-05-29 15:09:47.520,89066,6830,3866,50725,79300
2025-05-29 15:09:47.524,89051,6824,3865,50729,79306
2025-05-29 15:09:47.532,89067,6825,3879,50719,79299
2025-05-29 15:09:47.545,89063,6824,3861,50737,79302
2025-05-29 15:09:47.552,89059,6830,3869,50725,79301
2025-05-29 15:09:47.564,89080,6832,3870,50739,79313
2025-05-29 15:09:47.590,89086,6831,3866,50733,79300
2025-05-29 15:09:47.592,89091,6834,3873,50749,79309
2025-05-29 15:09:47.593,89094,6830,3875,50752,79314
2025-05-29 15:09:47.605,89090,6833,3876,50766,79343
2025-05-29 15:09:47.613,89088,6828,3873,50772,79339
2025-05-29 15:09:47.624,89077,6834,3880,50802,79353
2025-05-29 15:09:47.632,89049,6826,3878,50825,79368
2025-05-29 15:09:47.662,89025,6828,3878,50839,79365
2025-05-29 15:09:47.665,88990,6827,3874,50839,79381
2025-05-29 15:09:47.666,88968,6824,3870,50829,79371
2025-05-29 15:09:47.673,88946,6817,3869,50829,79353
2025-05-29 15:09:47.685,88938,6822,3866,50810,79330
2025-05-29 15:09:47.693,88941,6816,3872,50806,79372
2025-05-29 15:09:47.704,88934,6837,3862,50827,79365
2025-05-29 15:09:47.733,88941,6836,3870,50821,79388
2025-05-29 15:09:47.735,88926,6842,3873,50821,79372
2025-05-29 15:09:47.737,88924,6845,3873,50807,79382
2025-05-29 15:09:47.744,88911,6851,3873,50807,79368
2025-05-29 15:09:47.752,88909,6866,3878,50815,79398
2025-05-29 15:09:47.765,88893,6861,3880,50836,79396
2025-05-29 15:09:47.772,88874,6857,3874,50852,79401
2025-05-29 15:09:47.803,88857,6838,3874,50841,79377
2025-05-29 15:09:47.804,88821,6819,3866,50841,79347
2025-05-29 15:09:47.806,88793,6795,3860,50829,79333
2025-05-29 15:09:47.811,88776,6778,3844,50851,79303
2025-05-29 15:09:47.825,88765,6751,3835,50854,79304
2025-05-29 15:09:47.832,88746,6740,3832,50855,79291
2025-05-29 15:09:47.844,88744,6722,3823,50867,79289
2025-05-29 15:09:47.872,88730,6709,3820,50873,79298
2025-05-29 15:09:47.873,88730,6692,3806,50873,79274
2025-05-29 15:09:47.876,88726,6685,3807,50869,79289
2025-05-29 15:09:47.883,88726,6684,3795,50896,79263
2025-05-29 15:09:47.896,88743,6680,3796,50890,79295
2025-05-29 15:09:47.904,88741,6673,3800,50896,79268
2025-05-29 15:09:47.917,88746,6681,3801,50897,79273
2025-05-29 15:09:47.942,88766,6676,3803,50911,79294
2025-05-29 15:09:47.943,88789,6673,3807,50931,79317
2025-05-29 15:09:47.945,88797,6678,3805,50955,79351
