Timestamp,PPG1,PPG2,PPG3,PPG4,PPG5,PPG6
2025-02-26 17:15:39.013,130929,29866,32527,10,299621,328038
2025-02-26 17:15:40.213,130928,29874,32522,0,299637,328079
2025-02-26 17:15:41.332,130924,29878,32528,0,299659,328048
2025-02-26 17:15:41.342,130935,29884,32534,8,299701,328148
2025-02-26 17:15:41.384,130955,29886,32545,0,299689,328198
2025-02-26 17:15:41.556,130969,29904,32549,0,299683,328185
2025-02-26 17:15:41.558,130974,29894,32558,8,299638,328201
2025-02-26 17:15:41.560,130942,29892,32551,0,299562,328118
2025-02-26 17:15:41.562,130934,29903,32557,2,299560,328060
2025-02-26 17:15:41.563,130934,29893,32547,4,299462,328045
2025-02-26 17:15:41.565,130909,29883,32537,1,299477,328009
2025-02-26 17:15:41.567,130933,29900,32549,5,299513,327997
2025-02-26 17:15:41.569,130927,29907,32551,2,299491,328063
2025-02-26 17:15:41.571,130921,29912,32563,2,299483,328052
2025-02-26 17:15:41.572,130940,29921,32557,0,299483,328052
2025-02-26 17:15:41.574,130917,29924,32563,3,299474,328048
2025-02-26 17:15:41.576,130937,29917,32557,0,299445,328047
2025-02-26 17:15:41.578,130911,29916,32543,5,299450,327975
2025-02-26 17:15:41.580,130897,29916,32551,3,299416,327985
2025-02-26 17:15:41.581,130930,29921,32544,12,299465,328016
2025-02-26 17:15:41.583,130944,29934,32576,0,299464,328047
2025-02-26 17:15:41.585,130969,29947,32591,0,299541,328106
2025-02-26 17:15:41.588,130998,29970,32615,5,299593,328132
2025-02-26 17:15:41.591,131010,30000,32642,0,299670,328193
2025-02-26 17:15:41.595,131045,30000,32661,0,299698,328298
2025-02-26 17:15:41.704,131041,30008,32665,11,299760,328337
2025-02-26 17:15:41.707,131041,30008,32665,11,299760,328337
2025-02-26 17:15:41.709,131067,30033,32677,8,299849,328420
2025-02-26 17:15:41.712,131073,30020,32674,7,299790,328489
2025-02-26 17:15:41.714,131035,30020,32668,3,299779,328433
2025-02-26 17:15:41.716,131021,30024,32680,8,299687,328363
2025-02-26 17:15:41.719,131013,30003,32671,10,299613,328347
2025-02-26 17:15:41.721,130973,30007,32651,10,299584,328255
2025-02-26 17:15:41.723,130964,29989,32643,2,299536,328138
2025-02-26 17:15:41.726,130943,29981,32625,2,299499,328142
2025-02-26 17:15:41.729,130919,29974,32598,4,299449,328103
2025-02-26 17:15:41.731,130898,29958,32593,0,299399,328013
2025-02-26 17:15:41.734,130904,29944,32565,5,299341,327973
2025-02-26 17:15:41.736,130872,29928,32564,0,299250,327890
2025-02-26 17:15:41.740,130878,29927,32548,4,299236,327811
2025-02-26 17:15:41.744,130868,29940,32559,0,299259,327839
2025-02-26 17:15:41.748,130872,29930,32549,4,299342,327863
2025-02-26 17:15:41.880,130880,29930,32548,7,299327,327855
2025-02-26 17:15:41.882,130867,29910,32525,4,299317,327863
2025-02-26 17:15:41.884,130867,29902,32529,0,299313,327882
2025-02-26 17:15:41.886,130852,29903,32514,0,299301,327912
2025-02-26 17:15:41.890,130879,29902,32516,9,299338,327912
2025-02-26 17:15:41.892,130890,29929,32540,1,299394,327917
2025-02-26 17:15:41.894,130950,29945,32576,9,299507,328049
2025-02-26 17:15:41.897,131019,29979,32603,11,299636,328156
2025-02-26 17:15:41.900,131039,30005,32631,5,299732,328293
2025-02-26 17:15:41.902,131045,30010,32658,1,299749,328364
2025-02-26 17:15:41.905,131036,30006,32662,8,299759,328380
2025-02-26 17:15:41.907,131035,30004,32652,3,299714,328434
2025-02-26 17:15:41.909,130973,29993,32652,9,299631,328404
2025-02-26 17:15:41.911,130963,29993,32644,7,299574,328296
2025-02-26 17:15:41.913,130951,29979,32629,10,299544,328278
2025-02-26 17:15:41.915,130966,29999,32642,8,299502,328187
2025-02-26 17:15:41.917,130970,30008,32647,0,299465,328239
2025-02-26 17:15:41.920,130950,29998,32644,0,299428,328207
2025-02-26 17:15:41.922,130951,29996,32637,5,299390,328148
2025-02-26 17:15:41.924,130919,30003,32630,0,299381,328132
2025-02-26 17:15:42.050,130916,29973,32617,5,299383,328125
2025-02-26 17:15:42.053,130925,30000,32617,5,299448,328137
2025-02-26 17:15:42.056,130946,29995,32614,0,299489,328174
2025-02-26 17:15:42.058,130949,30002,32633,4,299544,328266
2025-02-26 17:15:42.062,130974,30004,32652,5,299587,328259
2025-02-26 17:15:42.064,130976,30014,32652,0,299537,328276
2025-02-26 17:15:42.067,130986,30017,32638,4,299542,328296
2025-02-26 17:15:42.070,130988,30034,32651,0,299590,328348
2025-02-26 17:15:42.072,130997,30010,32648,5,299629,328354
2025-02-26 17:15:42.076,131014,30029,32650,8,299652,328406
2025-02-26 17:15:42.078,131013,30030,32668,15,299644,328429
2025-02-26 17:15:42.081,131021,30021,32665,6,299623,328448
2025-02-26 17:15:42.085,131023,30032,32676,0,299596,328405
2025-02-26 17:15:42.088,131021,30030,32679,9,299589,328402
2025-02-26 17:15:42.093,131021,30037,32686,0,299581,328414
2025-02-26 17:15:42.097,130995,30026,32672,0,299528,328342
2025-02-26 17:15:42.268,130991,30029,32672,0,299573,328349
2025-02-26 17:15:42.270,130996,30037,32678,9,299538,328363
2025-02-26 17:15:42.272,131000,30026,32686,0,299479,328354
2025-02-26 17:15:42.275,131020,30036,32680,0,299468,328345
2025-02-26 17:15:42.278,131013,30029,32697,1,299381,328287
2025-02-26 17:15:42.280,130986,30035,32689,0,299363,328207
2025-02-26 17:15:42.282,131000,30035,32683,3,299404,328239
2025-02-26 17:15:42.285,130991,30045,32688,3,299348,328247
2025-02-26 17:15:42.287,130986,30042,32686,7,299395,328271
2025-02-26 17:15:42.289,131006,30058,32695,2,299430,328255
2025-02-26 17:15:42.293,131009,30051,32706,0,299415,328321
2025-02-26 17:15:42.295,131004,30054,32709,0,299405,328346
2025-02-26 17:15:42.299,130994,30055,32718,0,299381,328314
2025-02-26 17:15:42.302,130983,30054,32697,5,299336,328235
2025-02-26 17:15:42.304,130945,30043,32683,3,299282,328190
2025-02-26 17:15:42.307,130904,30022,32663,6,299225,328078
2025-02-26 17:15:42.310,130905,30013,32647,2,299186,328025
2025-02-26 17:15:42.312,130875,30020,32628,6,299174,327977
2025-02-26 17:15:42.316,130861,30008,32625,9,299155,327993
2025-02-26 17:15:42.419,130862,30001,32612,13,299147,327922
2025-02-26 17:15:42.421,130878,29999,32607,0,299099,327954
2025-02-26 17:15:42.423,130859,29993,32597,14,299097,327908
2025-02-26 17:15:42.426,130831,29980,32579,5,299066,327920
2025-02-26 17:15:42.428,130828,29974,32574,8,299048,327898
2025-02-26 17:15:42.431,130823,29954,32541,5,299035,327842
2025-02-26 17:15:42.433,130820,29934,32529,4,299008,327814
2025-02-26 17:15:42.435,130827,29935,32529,10,299012,327830
2025-02-26 17:15:42.437,130820,29948,32539,4,299048,327814
2025-02-26 17:15:42.440,130845,29954,32549,4,299061,327893
2025-02-26 17:15:42.443,130845,29954,32549,4,299061,327893
2025-02-26 17:15:42.446,130874,29951,32572,10,299103,327952
2025-02-26 17:15:42.448,130887,29964,32586,3,299139,327962
2025-02-26 17:15:42.450,130913,29976,32597,6,299176,328023
2025-02-26 17:15:42.452,130909,29980,32606,2,299165,328058
2025-02-26 17:15:42.455,130895,29969,32604,2,299116,328019
2025-02-26 17:15:42.457,130904,29977,32603,3,299099,327992
2025-02-26 17:15:42.460,130890,29965,32597,5,299073,328033
2025-02-26 17:15:42.463,130870,29960,32606,17,298993,327994
2025-02-26 17:15:42.466,130861,29964,32600,0,298995,327933
2025-02-26 17:15:42.468,130866,29962,32603,2,299008,327956
2025-02-26 17:15:42.608,130862,29956,32600,7,298981,327893
2025-02-26 17:15:42.610,130851,29964,32601,5,298956,327913
2025-02-26 17:15:42.612,130860,29953,32598,6,298927,327915
2025-02-26 17:15:42.615,130860,29953,32599,5,298927,327873
2025-02-26 17:15:42.616,130832,29952,32589,4,298912,327872
2025-02-26 17:15:42.618,130826,29940,32595,6,298900,327878
2025-02-26 17:15:42.620,130841,29947,32586,8,298891,327859
2025-02-26 17:15:42.622,130831,29946,32583,0,298871,327815
2025-02-26 17:15:42.624,130823,29935,32564,8,298837,327810
2025-02-26 17:15:42.626,130829,29946,32568,4,298787,327786
2025-02-26 17:15:42.628,130807,29931,32564,3,298746,327759
2025-02-26 17:15:42.630,130817,29920,32533,0,298639,327717
2025-02-26 17:15:42.632,130784,29887,32512,1,298578,327594
2025-02-26 17:15:42.634,130765,29877,32489,3,298547,327508
2025-02-26 17:15:42.636,130780,29886,32480,2,298509,327447
2025-02-26 17:15:42.639,130778,29881,32478,0,298580,327507
2025-02-26 17:15:42.643,130792,29877,32481,4,298584,327484
2025-02-26 17:15:42.646,130798,29862,32484,1,298603,327544
2025-02-26 17:15:42.649,130815,29876,32483,1,298607,327542
2025-02-26 17:15:42.652,130820,29877,32509,2,298657,327557
2025-02-26 17:15:42.654,130839,29904,32515,2,298691,327641
2025-02-26 17:15:42.656,130860,29900,32544,1,298677,327672
2025-02-26 17:15:42.776,130866,29912,32545,0,298653,327695
2025-02-26 17:15:42.778,130852,29914,32545,1,298561,327692
2025-02-26 17:15:42.781,130830,29915,32535,9,298470,327558
2025-02-26 17:15:42.783,130808,29897,32533,7,298386,327501
2025-02-26 17:15:42.788,130766,29901,32545,1,298327,327418
2025-02-26 17:15:42.801,130786,29908,32556,0,298382,327408
2025-02-26 17:15:42.806,130787,29938,32575,1,298434,327450
2025-02-26 17:15:42.810,130794,29943,32594,4,298436,327498
2025-02-26 17:15:42.814,130797,29970,32595,5,298467,327517
2025-02-26 17:15:42.817,130834,29976,32615,12,298556,327613
2025-02-26 17:15:42.820,130857,29994,32631,7,298629,327645
2025-02-26 17:15:42.825,130857,29990,32621,8,298721,327715
2025-02-26 17:15:43.457,130872,30010,32638,16,298794,327759
2025-02-26 17:15:43.460,130868,30022,32646,0,298869,327930
2025-02-26 17:15:43.464,130872,30019,32661,0,298938,327973
2025-02-26 17:15:43.467,130869,30021,32655,0,299016,327990
2025-02-26 17:15:43.472,130853,30003,32643,0,299022,328066
2025-02-26 17:15:43.475,130874,30014,32639,12,299130,328089
2025-02-26 17:15:43.478,130867,30004,32624,13,299155,328146
2025-02-26 17:15:43.482,130864,29986,32601,9,299173,328195
2025-02-26 17:15:43.486,130864,29968,32584,4,299171,328167
2025-02-26 17:15:43.492,130879,29946,32565,9,299248,328201
2025-02-26 17:15:43.498,130876,29957,32566,1,299283,328220
2025-02-26 17:15:43.784,130915,29974,32593,0,299368,328307
2025-02-26 17:15:43.793,130919,29991,32607,5,299507,328402
2025-02-26 17:15:43.797,130934,30004,32619,0,299579,328506
2025-02-26 17:15:43.803,130940,30035,32624,0,299588,328588
2025-02-26 17:15:43.809,130937,30023,32631,17,299666,328647
2025-02-26 17:15:43.813,130922,30030,32639,2,299657,328680
2025-02-26 17:15:43.816,130932,30027,32632,0,299692,328653
2025-02-26 17:15:43.819,130925,30051,32642,5,299711,328665
2025-02-26 17:15:43.824,130946,30062,32642,12,299732,328745
2025-02-26 17:15:43.828,130965,30083,32656,0,299863,328806
2025-02-26 17:15:44.477,130993,30092,32695,8,299920,328916
2025-02-26 17:15:44.482,131016,30110,32711,0,299913,328970
2025-02-26 17:15:44.485,131024,30109,32711,4,299941,329038
2025-02-26 17:15:44.488,131004,30112,32727,11,299915,329049
2025-02-26 17:15:44.492,131022,30101,32728,0,299987,329074
2025-02-26 17:15:44.495,131004,30103,32736,15,299964,329054
2025-02-26 17:15:44.498,131006,30096,32731,4,299896,329004
2025-02-26 17:15:44.501,130998,30084,32739,2,299853,329011
2025-02-26 17:15:44.504,130987,30086,32739,18,299867,328984
2025-02-26 17:15:44.507,131012,30088,32746,0,299948,328983
2025-02-26 17:15:44.509,131027,30103,32763,6,299930,329018
2025-02-26 17:15:44.512,131036,30103,32769,4,299938,329067
2025-02-26 17:15:44.514,131041,30107,32779,8,299961,329039
2025-02-26 17:15:44.517,131039,30124,32800,3,300001,329073
2025-02-26 17:15:44.519,131058,30124,32815,0,300003,329079
2025-02-26 17:15:44.522,131076,30138,32827,0,300029,329101
2025-02-26 17:15:44.524,131067,30147,32831,3,300039,329129
2025-02-26 17:15:44.670,131091,30146,32848,4,300029,329166
2025-02-26 17:15:44.673,131097,30154,32840,7,300060,329177
2025-02-26 17:15:44.676,131096,30157,32841,2,300084,329211
2025-02-26 17:15:44.678,131097,30157,32845,5,300092,329211
2025-02-26 17:15:44.680,131092,30137,32836,3,300046,329220
2025-02-26 17:15:44.682,131082,30134,32825,7,300058,329193
2025-02-26 17:15:44.685,131095,30121,32807,11,300053,329190
2025-02-26 17:15:44.687,131111,30126,32800,2,300076,329228
2025-02-26 17:15:44.691,131139,30107,32798,6,300111,329224
2025-02-26 17:15:44.696,131150,30125,32799,10,300152,329265
2025-02-26 17:15:44.699,131188,30127,32795,0,300250,329365
2025-02-26 17:15:44.701,131200,30128,32798,0,300261,329415
2025-02-26 17:15:44.703,131199,30117,32796,3,300247,329418
2025-02-26 17:15:44.707,131209,30108,32796,2,300240,329461
2025-02-26 17:15:44.709,131222,30098,32780,2,300217,329440
2025-02-26 17:15:44.712,131198,30087,32774,6,300204,329422
2025-02-26 17:15:44.714,131176,30090,32775,0,300152,329381
2025-02-26 17:15:44.716,131168,30082,32775,2,300114,329363
2025-02-26 17:15:44.718,131168,30082,32775,2,300114,329363
2025-02-26 17:15:44.824,131183,30095,32789,0,300091,329333
2025-02-26 17:15:44.826,131169,30098,32798,0,300080,329359
2025-02-26 17:15:44.829,131175,30078,32793,4,299995,329319
2025-02-26 17:15:44.832,131141,30080,32783,2,300014,329283
2025-02-26 17:15:44.834,131132,30079,32784,0,300017,329239
2025-02-26 17:15:44.838,131130,30074,32776,7,300007,329258
2025-02-26 17:15:44.841,131108,30068,32778,1,300053,329221
2025-02-26 17:15:44.844,131106,30070,32774,12,300059,329235
2025-02-26 17:15:44.848,131116,30065,32765,6,300100,329284
2025-02-26 17:15:44.851,131109,30066,32771,3,300104,329279
2025-02-26 17:15:44.854,131121,30076,32770,10,300182,329306
2025-02-26 17:15:44.857,131127,30088,32768,1,300220,329372
2025-02-26 17:15:44.860,131132,30079,32776,2,300272,329368
2025-02-26 17:15:44.863,131110,30068,32764,0,300220,329373
2025-02-26 17:15:44.866,131096,30047,32750,7,300167,329389
2025-02-26 17:15:44.869,131071,30030,32727,0,300150,329256
2025-02-26 17:15:44.873,131104,30033,32746,7,300174,329277
2025-02-26 17:15:45.057,131156,30078,32776,4,300273,329316
2025-02-26 17:15:45.060,131192,30104,32832,6,300492,329472
2025-02-26 17:15:45.062,131272,30155,32870,6,300666,329645
2025-02-26 17:15:45.065,131312,30190,32909,4,300790,329870
2025-02-26 17:15:45.067,131352,30230,32945,5,300896,330019
2025-02-26 17:15:45.070,131375,30253,32977,0,301050,330153
2025-02-26 17:15:45.073,131417,30265,33005,6,301145,330274
2025-02-26 17:15:45.075,131425,30286,33027,1,301205,330361
2025-02-26 17:15:45.077,131432,30306,33049,5,301279,330457
2025-02-26 17:15:45.080,131457,30315,33053,0,301339,330545
2025-02-26 17:15:45.082,131477,30317,33077,1,301385,330643
2025-02-26 17:15:45.085,131487,30320,33081,3,301375,330677
2025-02-26 17:15:45.088,131478,30313,33089,1,301359,330694
2025-02-26 17:15:45.090,131483,30310,33081,4,301308,330653
2025-02-26 17:15:45.093,131466,30308,33061,0,301244,330623
2025-02-26 17:15:45.095,131454,30289,33053,4,301221,330543
2025-02-26 17:15:45.100,131436,30295,33044,0,301170,330502
2025-02-26 17:15:45.293,131455,30276,33038,0,301168,330479
2025-02-26 17:15:45.295,131433,30273,33046,10,301170,330444
2025-02-26 17:15:45.297,131442,30272,33044,3,301121,330453
2025-02-26 17:15:45.301,131418,30262,33022,11,301084,330444
2025-02-26 17:15:45.304,131411,30251,33026,12,300991,330387
2025-02-26 17:15:45.307,131401,30244,33007,7,300946,330315
2025-02-26 17:15:45.309,131387,30225,32977,6,300891,330241
2025-02-26 17:15:45.311,131380,30198,32955,4,300820,330229
2025-02-26 17:15:45.314,131375,30191,32944,2,300777,330179
2025-02-26 17:15:45.317,131373,30188,32931,3,300788,330146
2025-02-26 17:15:45.320,131377,30182,32934,5,300824,330122
2025-02-26 17:15:45.323,131407,30193,32936,3,300845,330160
2025-02-26 17:15:45.326,131403,30196,32948,5,300893,330182
2025-02-26 17:15:45.330,131414,30203,32934,6,300898,330225
2025-02-26 17:15:45.334,131416,30186,32933,7,300864,330248
2025-02-26 17:15:45.339,131428,30183,32933,6,300890,330234
2025-02-26 17:15:45.741,131428,30183,32933,6,300890,330234
2025-02-26 17:15:45.747,131447,30183,32934,1,300841,330191
2025-02-26 17:15:45.754,131418,30173,32933,3,300836,330253
2025-02-26 17:15:45.759,131412,30166,32935,13,300810,330198
2025-02-26 17:15:45.765,131428,30178,32926,0,300785,330220
2025-02-26 17:15:45.769,131419,30145,32917,6,300691,330159
2025-02-26 17:15:45.773,131397,30153,32908,0,300638,330108
2025-02-26 17:15:45.778,131383,30137,32894,7,300544,330034
2025-02-26 17:15:45.783,131365,30126,32890,9,300474,329953
2025-02-26 17:15:45.788,131349,30114,32882,3,300377,329894
2025-02-26 17:15:46.092,131349,30114,32882,3,300377,329894
2025-02-26 17:15:46.097,131333,30095,32875,11,300279,329775
2025-02-26 17:15:46.101,131335,30093,32864,2,300319,329790
2025-02-26 17:15:46.104,131343,30102,32864,0,300330,329778
2025-02-26 17:15:46.106,131337,30092,32867,8,300288,329793
2025-02-26 17:15:46.110,131337,30084,32862,9,300259,329777
2025-02-26 17:15:46.113,131316,30075,32853,11,300240,329739
2025-02-26 17:15:46.116,131286,30052,32816,7,300179,329675
2025-02-26 17:15:46.120,131254,30054,32817,3,300175,329587
2025-02-26 17:15:46.123,131263,30043,32803,8,300199,329594
2025-02-26 17:15:46.125,131248,30047,32800,10,300181,329593
2025-02-26 17:15:46.129,131255,30036,32803,0,300212,329550
2025-02-26 17:15:46.132,131255,30034,32807,0,300210,329582
2025-02-26 17:15:46.137,131207,30018,32786,2,300077,329548
2025-02-26 17:15:46.141,131193,30009,32768,7,300005,329486
2025-02-26 17:15:46.405,131175,29992,32761,7,299999,329396
2025-02-26 17:15:46.407,131157,29997,32748,2,299974,329363
2025-02-26 17:15:46.409,131162,29985,32745,0,299976,329338
2025-02-26 17:15:46.412,131192,29994,32739,8,300052,329371
2025-02-26 17:15:46.414,131206,29991,32764,7,300064,329388
2025-02-26 17:15:46.416,131213,29988,32751,1,300087,329434
2025-02-26 17:15:46.420,131216,29990,32748,7,300118,329484
2025-02-26 17:15:46.422,131204,29982,32734,5,300090,329510
2025-02-26 17:15:46.425,131218,29966,32726,3,300143,329480
2025-02-26 17:15:46.428,131210,29971,32724,4,300116,329498
2025-02-26 17:15:46.430,131202,29956,32706,1,300136,329509
2025-02-26 17:15:46.433,131225,29967,32705,7,300150,329526
2025-02-26 17:15:46.436,131229,29963,32703,0,300187,329556
2025-02-26 17:15:46.439,131224,29962,32708,0,300196,329558
2025-02-26 17:15:46.441,131223,29961,32716,3,300253,329622
2025-02-26 17:15:46.445,131219,29942,32697,0,300259,329617
2025-02-26 17:15:46.448,131196,29926,32677,2,300175,329672
2025-02-26 17:15:46.450,131179,29934,32668,0,300171,329600
2025-02-26 17:15:46.684,131187,29920,32670,0,300179,329568
2025-02-26 17:15:46.688,131196,29932,32664,0,300192,329591
2025-02-26 17:15:46.690,131204,29928,32669,0,300203,329586
2025-02-26 17:15:46.693,131211,29923,32667,14,300233,329574
2025-02-26 17:15:46.695,131211,29923,32666,12,300276,329653
2025-02-26 17:15:46.698,131222,29908,32653,3,300306,329610
2025-02-26 17:15:46.701,131204,29906,32653,0,300265,329659
2025-02-26 17:15:46.705,131210,29903,32650,4,300264,329685
2025-02-26 17:15:46.707,131210,29903,32650,4,300264,329685
2025-02-26 17:15:46.709,131200,29882,32623,0,300190,329583
2025-02-26 17:15:46.711,131197,29888,32625,1,300222,329577
2025-02-26 17:15:46.713,131206,29888,32637,3,300184,329581
2025-02-26 17:15:46.716,131196,29875,32625,1,300169,329566
2025-02-26 17:15:46.718,131207,29871,32620,0,300101,329533
2025-02-26 17:15:46.721,131193,29860,32627,0,300075,329483
2025-02-26 17:15:46.724,131168,29843,32605,3,300005,329405
2025-02-26 17:15:46.726,131168,29830,32591,4,299958,329362
2025-02-26 17:15:46.728,131160,29829,32608,3,299933,329357
2025-02-26 17:15:46.731,131158,29829,32602,10,299879,329305
2025-02-26 17:15:46.966,131136,29820,32595,4,299860,329210
2025-02-26 17:15:46.969,131135,29811,32588,0,299765,329159
2025-02-26 17:15:46.972,131134,29800,32572,0,299764,329154
2025-02-26 17:15:46.974,131118,29787,32551,10,299710,329084
2025-02-26 17:15:46.976,131111,29765,32521,3,299653,329001
2025-02-26 17:15:46.979,131087,29754,32499,3,299630,328989
2025-02-26 17:15:46.981,131098,29737,32478,0,299644,328953
2025-02-26 17:15:46.983,131094,29716,32466,6,299648,328930
2025-02-26 17:15:46.986,131128,29717,32467,1,299706,328950
2025-02-26 17:15:46.989,131129,29724,32464,9,299722,328998
2025-02-26 17:15:46.992,131141,29731,32460,3,299730,329060
2025-02-26 17:15:46.996,131158,29721,32462,6,299736,329003
2025-02-26 17:15:46.999,131169,29704,32462,0,299721,329073
2025-02-26 17:15:47.001,131160,29708,32445,7,299689,329051
2025-02-26 17:15:47.004,131142,29699,32427,4,299698,328971
2025-02-26 17:15:47.007,131131,29677,32429,4,299619,328981
2025-02-26 17:15:47.009,131104,29667,32415,7,299551,328886
2025-02-26 17:15:47.011,131097,29660,32405,6,299512,328781
2025-02-26 17:15:47.014,131086,29660,32411,0,299484,328724
2025-02-26 17:15:47.420,131110,29646,32411,7,299488,328715
2025-02-26 17:15:47.425,131079,29646,32397,0,299431,328679
2025-02-26 17:15:47.428,131073,29619,32395,2,299398,328618
2025-02-26 17:15:47.432,131067,29635,32390,1,299369,328566
2025-02-26 17:15:47.436,131058,29626,32389,7,299351,328584
2025-02-26 17:15:47.441,131065,29632,32403,0,299411,328555
2025-02-26 17:15:47.447,131076,29644,32424,6,299490,328595
2025-02-26 17:15:47.452,131118,29672,32459,11,299555,328660
2025-02-26 17:15:47.455,131166,29709,32494,1,299626,328835
2025-02-26 17:15:47.460,131191,29725,32543,9,299665,328917
2025-02-26 17:15:47.463,131189,29747,32559,10,299700,328950
2025-02-26 17:15:47.466,131195,29755,32582,5,299683,329017
2025-02-26 17:15:47.809,131192,29767,32602,2,299643,328999
2025-02-26 17:15:47.812,131190,29797,32622,0,299705,328981
2025-02-26 17:15:47.815,131194,29798,32634,7,299743,328957
2025-02-26 17:15:47.817,131208,29827,32665,12,299822,329066
2025-02-26 17:15:47.821,131272,29870,32703,0,299997,329221
2025-02-26 17:15:47.825,131326,29920,32765,2,300093,329399
2025-02-26 17:15:47.828,131378,29944,32820,13,300082,329492
2025-02-26 17:15:47.830,131372,29954,32822,5,300034,329523
2025-02-26 17:15:47.833,131345,29953,32818,16,299899,329420
2025-02-26 17:15:47.835,131319,29937,32792,4,299885,329370
2025-02-26 17:15:47.840,131295,29923,32766,6,299830,329257
2025-02-26 17:15:47.845,131247,29911,32737,7,299798,329227
2025-02-26 17:15:47.848,131230,29909,32741,16,299797,329238
2025-02-26 17:15:47.850,131234,29908,32717,0,299752,329197
2025-02-26 17:15:47.853,131250,29902,32726,0,299732,329206
2025-02-26 17:15:47.858,131253,29908,32719,8,299731,329125
2025-02-26 17:15:48.098,131261,29924,32732,7,299702,329182
2025-02-26 17:15:48.101,131287,29924,32732,8,299703,329196
2025-02-26 17:15:48.103,131278,29916,32724,11,299724,329196
2025-02-26 17:15:48.106,131263,29904,32716,14,299738,329236
2025-02-26 17:15:48.108,131264,29910,32701,3,299749,329201
2025-02-26 17:15:48.111,131256,29906,32709,3,299740,329208
2025-02-26 17:15:48.113,131275,29914,32711,2,299747,329213
2025-02-26 17:15:48.116,131255,29902,32707,0,299689,329244
2025-02-26 17:15:48.119,131236,29890,32685,0,299629,329166
2025-02-26 17:15:48.121,131214,29873,32666,4,299633,329151
2025-02-26 17:15:48.124,131203,29862,32658,9,299579,329101
2025-02-26 17:15:48.127,131192,29858,32639,4,299676,329091
2025-02-26 17:15:48.130,131226,29862,32644,9,299735,329132
2025-02-26 17:15:48.132,131224,29858,32639,0,299726,329230
2025-02-26 17:15:48.135,131236,29870,32648,12,299783,329252
2025-02-26 17:15:48.140,131250,29870,32650,5,299815,329230
2025-02-26 17:15:48.143,131247,29879,32651,6,299870,329305
2025-02-26 17:15:48.146,131261,29877,32661,5,299885,329349
2025-02-26 17:15:48.400,131251,29865,32644,6,299869,329404
2025-02-26 17:15:48.402,131242,29852,32630,4,299867,329391
2025-02-26 17:15:48.404,131233,29839,32619,0,299841,329405
2025-02-26 17:15:48.407,131240,29844,32613,6,299893,329367
2025-02-26 17:15:48.410,131224,29837,32611,16,299913,329358
2025-02-26 17:15:48.413,131237,29843,32609,0,299935,329438
2025-02-26 17:15:48.415,131245,29838,32625,5,299949,329428
2025-02-26 17:15:48.418,131246,29842,32622,2,299950,329489
2025-02-26 17:15:48.420,131213,29829,32613,4,299927,329381
2025-02-26 17:15:48.422,131213,29837,32608,2,299906,329351
2025-02-26 17:15:48.425,131173,29822,32596,4,299861,329324
2025-02-26 17:15:48.427,131155,29798,32579,8,299793,329300
2025-02-26 17:15:48.431,131131,29786,32556,12,299746,329168
2025-02-26 17:15:48.433,131122,29787,32566,4,299747,329140
2025-02-26 17:15:48.435,131109,29785,32549,6,299666,329099
2025-02-26 17:15:48.438,131113,29783,32553,5,299715,329133
2025-02-26 17:15:48.441,131133,29789,32548,3,299721,329131
2025-02-26 17:15:48.445,131136,29795,32549,2,299745,329156
2025-02-26 17:15:48.449,131133,29797,32548,0,299777,329150
2025-02-26 17:15:48.662,131140,29794,32564,3,299837,329206
2025-02-26 17:15:48.665,131173,29814,32569,2,299831,329254
2025-02-26 17:15:48.667,131164,29818,32584,1,299900,329259
2025-02-26 17:15:48.670,131172,29820,32598,0,299920,329361
2025-02-26 17:15:48.672,131193,29850,32621,6,300050,329372
2025-02-26 17:15:48.674,131226,29894,32647,1,300152,329494
2025-02-26 17:15:48.677,131226,29894,32647,1,300152,329494
2025-02-26 17:15:48.680,131291,29940,32721,0,300317,329750
2025-02-26 17:15:48.682,131299,29966,32760,8,300401,329834
2025-02-26 17:15:48.685,131343,29995,32803,0,300480,329905
2025-02-26 17:15:48.688,131360,30013,32835,7,300561,330027
2025-02-26 17:15:48.690,131383,30038,32865,1,300632,330115
2025-02-26 17:15:48.693,131391,30061,32895,5,300665,330188
2025-02-26 17:15:48.696,131413,30089,32913,5,300698,330299
2025-02-26 17:15:48.698,131418,30106,32936,2,300630,330241
2025-02-26 17:15:48.701,131431,30129,32945,5,300603,330223
2025-02-26 17:15:48.703,131442,30142,32964,10,300597,330273
2025-02-26 17:15:48.706,131436,30163,32985,5,300653,330255
2025-02-26 17:15:48.709,131434,30167,32985,4,300680,330317
2025-02-26 17:15:48.984,131471,30184,33003,4,300745,330355
2025-02-26 17:15:48.987,131482,30194,33011,11,300736,330442
2025-02-26 17:15:48.991,131459,30198,33020,2,300686,330413
2025-02-26 17:15:48.994,131487,30206,33028,9,300675,330387
2025-02-26 17:15:48.997,131475,30218,33025,6,300737,330397
2025-02-26 17:15:49.000,131461,30202,33013,2,300743,330421
2025-02-26 17:15:49.002,131471,30197,33001,7,300752,330441
2025-02-26 17:15:49.005,131470,30208,33007,9,300836,330487
2025-02-26 17:15:49.007,131494,30220,33007,7,300810,330547
2025-02-26 17:15:49.011,131481,30208,32997,2,300736,330567
2025-02-26 17:15:49.014,131444,30194,32983,4,300637,330490
2025-02-26 17:15:49.016,131461,30190,32970,5,300649,330452
2025-02-26 17:15:49.019,131460,30205,32963,5,300683,330417
2025-02-26 17:15:49.022,131459,30176,32952,8,300684,330397
2025-02-26 17:15:49.025,131430,30165,32933,0,300641,330389
2025-02-26 17:15:49.028,131434,30165,32928,0,300644,330391
2025-02-26 17:15:49.031,131421,30154,32927,7,300604,330407
2025-02-26 17:15:49.271,131425,30131,32894,0,300611,330347
2025-02-26 17:15:49.274,131392,30124,32887,0,300532,330323
2025-02-26 17:15:49.277,131398,30122,32886,6,300550,330322
2025-02-26 17:15:49.279,131398,30121,32868,5,300555,330310
2025-02-26 17:15:49.281,131397,30105,32865,2,300533,330315
2025-02-26 17:15:49.284,131406,30094,32855,0,300542,330304
2025-02-26 17:15:49.286,131408,30082,32822,2,300565,330312
2025-02-26 17:15:49.290,131432,30087,32820,14,300621,330350
2025-02-26 17:15:49.294,131429,30057,32784,10,300625,330404
2025-02-26 17:15:49.297,131417,30039,32766,4,300640,330417
2025-02-26 17:15:49.301,131424,30015,32756,0,300615,330432
2025-02-26 17:15:49.303,131417,30004,32731,15,300589,330344
2025-02-26 17:15:49.306,131416,29989,32726,3,300583,330278
2025-02-26 17:15:49.309,131405,29971,32710,6,300505,330254
2025-02-26 17:15:49.312,131350,29950,32683,1,300478,330172
2025-02-26 17:15:49.316,131350,29945,32658,3,300374,330082
2025-02-26 17:15:49.319,131315,29938,32641,0,300314,330044
2025-02-26 17:15:49.628,131307,29912,32634,9,300293,329948
2025-02-26 17:15:49.632,131309,29918,32615,4,300239,329933
2025-02-26 17:15:49.635,131305,29908,32617,13,300237,329918
2025-02-26 17:15:49.638,131284,29909,32618,2,300230,329896
2025-02-26 17:15:49.641,131276,29903,32620,0,300201,329824
2025-02-26 17:15:49.645,131287,29908,32602,7,300238,329837
2025-02-26 17:15:49.649,131272,29910,32618,0,300276,329863
2025-02-26 17:15:49.652,131317,29925,32642,4,300279,329962
2025-02-26 17:15:49.655,131316,29933,32641,0,300332,330019
2025-02-26 17:15:49.657,131301,29932,32648,5,300321,329994
2025-02-26 17:15:49.660,131311,29946,32665,0,300356,330053
2025-02-26 17:15:49.663,131343,29963,32687,0,300454,330102
2025-02-26 17:15:49.666,131394,29978,32717,2,300560,330200
2025-02-26 17:15:49.669,131401,29990,32724,0,300617,330374
2025-02-26 17:15:49.671,131430,30010,32751,0,300714,330385
2025-02-26 17:15:49.674,131450,30037,32795,3,300768,330503
2025-02-26 17:15:49.906,131467,30065,32824,3,300861,330592
2025-02-26 17:15:49.909,131515,30088,32859,1,301022,330639
2025-02-26 17:15:49.912,131539,30117,32893,7,301029,330759
2025-02-26 17:15:49.916,131543,30150,32916,0,301042,330847
2025-02-26 17:15:49.919,131534,30160,32934,2,300978,330860
2025-02-26 17:15:49.921,131517,30165,32948,6,300891,330822
2025-02-26 17:15:49.924,131494,30164,32929,3,300768,330746
2025-02-26 17:15:49.927,131442,30150,32909,0,300651,330650
2025-02-26 17:15:49.929,131414,30144,32905,0,300607,330526
2025-02-26 17:15:49.933,131386,30148,32900,3,300592,330472
2025-02-26 17:15:49.935,131410,30152,32901,6,300583,330464
2025-02-26 17:15:49.938,131414,30170,32907,7,300611,330417
2025-02-26 17:15:49.941,131436,30185,32932,5,300628,330418
2025-02-26 17:15:49.943,131464,30198,32958,5,300720,330529
2025-02-26 17:15:49.947,131482,30214,32958,1,300717,330600
2025-02-26 17:15:49.951,131489,30215,32953,5,300715,330677
2025-02-26 17:15:49.954,131483,30207,32951,0,300715,330637
2025-02-26 17:15:50.219,131483,30202,32941,5,300713,330633
2025-02-26 17:15:50.221,131470,30204,32941,3,300739,330620
2025-02-26 17:15:50.224,131459,30194,32931,0,300700,330620
2025-02-26 17:15:50.227,131468,30199,32929,0,300715,330597
2025-02-26 17:15:50.230,131477,30201,32932,1,300697,330614
2025-02-26 17:15:50.234,131457,30196,32923,6,300541,330598
2025-02-26 17:15:50.236,131432,30174,32905,5,300480,330489
2025-02-26 17:15:50.239,131429,30175,32904,8,300448,330414
2025-02-26 17:15:50.243,131432,30170,32891,0,300506,330440
2025-02-26 17:15:50.247,131426,30169,32891,7,300528,330436
2025-02-26 17:15:50.251,131446,30169,32883,6,300557,330500
2025-02-26 17:15:50.254,131442,30174,32895,6,300583,330540
2025-02-26 17:15:50.257,131462,30160,32883,6,300629,330576
2025-02-26 17:15:50.261,131475,30163,32896,6,300670,330637
2025-02-26 17:15:50.265,131474,30165,32881,0,300627,330627
2025-02-26 17:15:50.736,131471,30151,32867,0,300613,330639
2025-02-26 17:15:50.741,131451,30134,32829,1,300560,330587
2025-02-26 17:15:50.747,131439,30100,32797,0,300550,330591
2025-02-26 17:15:50.751,131414,30074,32768,9,300507,330486
2025-02-26 17:15:50.754,131416,30049,32737,3,300478,330417
2025-02-26 17:15:50.758,131383,30026,32703,0,300476,330401
2025-02-26 17:15:50.762,131383,30026,32703,0,300476,330401
2025-02-26 17:15:50.766,131369,30012,32657,5,300384,330299
2025-02-26 17:15:50.771,131364,29985,32649,9,300310,330244
2025-02-26 17:15:50.775,131355,29978,32627,3,300327,330215
2025-02-26 17:15:50.779,131368,29971,32623,13,300377,330191
2025-02-26 17:15:50.783,131395,29960,32606,1,300446,330254
2025-02-26 17:15:51.108,131391,29957,32596,2,300467,330279
2025-02-26 17:15:51.110,131389,29934,32582,3,300488,330308
2025-02-26 17:15:51.113,131386,29920,32556,4,300414,330302
2025-02-26 17:15:51.115,131354,29903,32537,5,300332,330242
2025-02-26 17:15:51.117,131318,29878,32517,4,300247,330147
2025-02-26 17:15:51.119,131295,29865,32495,5,300192,330021
2025-02-26 17:15:51.122,131290,29848,32487,4,300162,329981
2025-02-26 17:15:51.124,131294,29850,32486,3,300243,329960
2025-02-26 17:15:51.126,131310,29858,32486,8,300314,330015
2025-02-26 17:15:51.129,131342,29868,32515,0,300357,330091
2025-02-26 17:15:51.131,131372,29881,32528,6,300352,330161
2025-02-26 17:15:51.133,131351,29866,32519,5,300250,330160
2025-02-26 17:15:51.135,131327,29848,32518,11,300218,330091
2025-02-26 17:15:51.139,131295,29846,32508,0,300195,330018
2025-02-26 17:15:51.142,131314,29849,32513,4,300185,329987
2025-02-26 17:15:51.146,131327,29854,32520,5,300230,329998
2025-02-26 17:15:51.148,131344,29879,32542,10,300322,330076
2025-02-26 17:15:51.151,131377,29890,32549,4,300339,330079
2025-02-26 17:15:51.155,131383,29896,32576,0,300349,330160
2025-02-26 17:15:51.361,131375,29905,32585,3,300319,330159
2025-02-26 17:15:51.364,131363,29895,32592,11,300285,330111
2025-02-26 17:15:51.367,131375,29918,32600,1,300307,330154
2025-02-26 17:15:51.375,131382,29912,32610,1,300373,330142
2025-02-26 17:15:51.378,131395,29922,32621,0,300342,330186
2025-02-26 17:15:51.382,131397,29930,32629,9,300273,330207
2025-02-26 17:15:51.385,131368,29923,32628,0,300210,330117
2025-02-26 17:15:51.388,131372,29943,32645,9,300204,330025
2025-02-26 17:15:51.393,131352,29926,32624,4,300124,329964
2025-02-26 17:15:51.397,131329,29912,32605,11,300095,329913
2025-02-26 17:15:51.401,131333,29927,32626,6,300106,329892
2025-02-26 17:15:51.403,131344,29924,32606,0,300118,329946
2025-02-26 17:15:51.406,131321,29904,32612,0,300144,329940
2025-02-26 17:15:51.409,131369,29942,32627,7,300184,329968
2025-02-26 17:15:51.652,131362,29938,32636,5,300204,330015
2025-02-26 17:15:51.656,131390,29939,32623,6,300210,330058
2025-02-26 17:15:51.659,131395,29943,32625,0,300274,330044
2025-02-26 17:15:51.662,131393,29930,32614,0,300237,330103
2025-02-26 17:15:51.666,131378,29920,32589,2,300168,330048
2025-02-26 17:15:51.668,131363,29904,32598,2,300196,329996
2025-02-26 17:15:51.672,131365,29900,32594,6,300182,329986
2025-02-26 17:15:51.675,131372,29915,32607,2,300194,330004
2025-02-26 17:15:51.678,131407,29925,32615,6,300198,329993
2025-02-26 17:15:51.682,131422,29915,32616,8,300146,329981
2025-02-26 17:15:51.684,131382,29912,32617,11,300100,329986
2025-02-26 17:15:51.688,131378,29925,32607,9,300141,329916
2025-02-26 17:15:51.691,131377,29922,32619,5,300139,329920
2025-02-26 17:15:51.694,131348,29916,32605,6,300188,329896
2025-02-26 17:15:51.698,131330,29896,32583,0,300135,329899
2025-02-26 17:15:51.701,131329,29907,32589,17,300113,329893
2025-02-26 17:15:51.851,131330,29893,32578,5,300129,329831
2025-02-26 17:15:51.855,131283,29881,32557,6,299996,329782
2025-02-26 17:15:51.858,131271,29871,32533,7,299955,329653
2025-02-26 17:15:51.862,131235,29846,32514,6,299806,329577
2025-02-26 17:15:51.866,131216,29811,32466,5,299738,329425
2025-02-26 17:15:51.869,131170,29783,32435,0,299661,329293
2025-02-26 17:15:51.874,131162,29789,32442,4,299688,329275
2025-02-26 17:15:51.878,131188,29798,32449,7,299752,329287
2025-02-26 17:15:51.883,131195,29778,32431,12,299737,329308
2025-02-26 17:15:51.886,131202,29777,32431,7,299764,329301
2025-02-26 17:15:51.890,131188,29769,32426,4,299736,329284
2025-02-26 17:15:51.893,131187,29756,32392,10,299738,329262
2025-02-26 17:15:51.898,131185,29746,32389,2,299781,329225
2025-02-26 17:15:52.260,131196,29747,32389,2,299818,329265
2025-02-26 17:15:52.265,131208,29758,32394,0,299908,329317
2025-02-26 17:15:52.270,131244,29767,32407,2,299919,329368
2025-02-26 17:15:52.274,131266,29779,32428,4,299943,329416
2025-02-26 17:15:52.278,131273,29777,32422,7,299917,329463
2025-02-26 17:15:52.283,131249,29760,32419,0,299854,329414
2025-02-26 17:15:52.287,131226,29756,32390,7,299837,329368
2025-02-26 17:15:52.292,131213,29743,32380,4,299823,329334
2025-02-26 17:15:52.297,131204,29727,32368,4,299765,329273
2025-02-26 17:15:52.301,131187,29725,32372,0,299760,329219
2025-02-26 17:15:52.306,131228,29740,32380,4,299777,329195
2025-02-26 17:15:52.612,131220,29735,32387,0,299760,329227
2025-02-26 17:15:52.615,131237,29741,32380,2,299786,329254
2025-02-26 17:15:52.619,131237,29741,32380,2,299786,329254
2025-02-26 17:15:52.622,131240,29722,32370,6,299732,329245
2025-02-26 17:15:52.626,131219,29708,32357,10,299674,329196
2025-02-26 17:15:52.629,131203,29702,32334,4,299610,329105
2025-02-26 17:15:52.632,131168,29671,32315,5,299527,329032
2025-02-26 17:15:52.635,131160,29693,32323,4,299493,328973
2025-02-26 17:15:52.638,131160,29693,32323,4,299493,328973
2025-02-26 17:15:52.643,131153,29686,32330,4,299509,328962
2025-02-26 17:15:52.649,131153,29684,32331,2,299517,328973
2025-02-26 17:15:52.652,131170,29686,32329,0,299486,328986
2025-02-26 17:15:52.656,131167,29694,32344,6,299525,328988
2025-02-26 17:15:52.659,131159,29687,32348,5,299467,328977
2025-02-26 17:15:52.827,131162,29700,32337,0,299500,328960
2025-02-26 17:15:52.830,131170,29701,32342,5,299563,328930
2025-02-26 17:15:52.832,131198,29718,32367,9,299707,329042
2025-02-26 17:15:52.835,131227,29750,32394,4,299833,329154
2025-02-26 17:15:52.839,131286,29771,32424,6,299955,329350
2025-02-26 17:15:52.844,131333,29796,32448,4,300057,329494
2025-02-26 17:15:52.848,131346,29809,32474,2,300090,329571
2025-02-26 17:15:52.851,131350,29811,32477,0,300107,329665
2025-02-26 17:15:52.853,131336,29791,32483,0,300076,329635
2025-02-26 17:15:52.856,131336,29791,32483,0,300076,329635
2025-02-26 17:15:52.858,131307,29804,32458,4,300035,329536
2025-02-26 17:15:52.861,131323,29798,32457,0,300044,329572
2025-02-26 17:15:52.864,131341,29804,32458,4,300126,329611
2025-02-26 17:15:52.866,131361,29800,32467,7,300145,329652
2025-02-26 17:15:52.869,131386,29820,32478,1,300271,329719
2025-02-26 17:15:52.872,131399,29823,32474,2,300266,329810
2025-02-26 17:15:52.874,131393,29801,32444,5,300248,329825
2025-02-26 17:15:53.064,131373,29787,32437,0,300212,329758
2025-02-26 17:15:53.067,131362,29774,32427,10,300215,329745
2025-02-26 17:15:53.070,131357,29765,32395,0,300199,329672
2025-02-26 17:15:53.073,131349,29751,32385,2,300197,329650
2025-02-26 17:15:53.076,131331,29742,32363,0,300223,329625
2025-02-26 17:15:53.078,131353,29744,32368,0,300252,329613
2025-02-26 17:15:53.081,131345,29731,32355,5,300280,329655
2025-02-26 17:15:53.083,131356,29725,32353,4,300259,329636
2025-02-26 17:15:53.086,131328,29700,32318,2,300229,329659
2025-02-26 17:15:53.090,131321,29685,32316,3,300188,329584
2025-02-26 17:15:53.093,131303,29676,32300,3,300223,329539
2025-02-26 17:15:53.096,131307,29665,32299,0,300233,329518
2025-02-26 17:15:53.099,131321,29678,32289,4,300359,329536
2025-02-26 17:15:53.102,131357,29675,32316,5,300458,329589
2025-02-26 17:15:53.104,131383,29688,32325,1,300558,329718
2025-02-26 17:15:53.106,131421,29714,32360,0,300644,329819
2025-02-26 17:15:53.109,131446,29713,32363,4,300661,329896
2025-02-26 17:15:53.112,131463,29714,32386,0,300727,329949
2025-02-26 17:15:53.321,131464,29718,32379,5,300719,329954
2025-02-26 17:15:53.323,131448,29725,32390,3,300704,330006
2025-02-26 17:15:53.325,131443,29727,32387,10,300723,330017
2025-02-26 17:15:53.327,131455,29725,32389,6,300688,330027
2025-02-26 17:15:53.329,131434,29724,32382,0,300606,329977
2025-02-26 17:15:53.331,131413,29711,32389,0,300562,329925
2025-02-26 17:15:53.334,131390,29715,32386,0,300524,329850
2025-02-26 17:15:53.337,131396,29709,32371,0,300516,329838
2025-02-26 17:15:53.339,131376,29686,32355,8,300418,329747
2025-02-26 17:15:53.342,131369,29674,32334,10,300359,329720
2025-02-26 17:15:53.344,131343,29646,32303,6,300162,329619
2025-02-26 17:15:53.346,131296,29620,32275,7,299941,329439
2025-02-26 17:15:53.348,131250,29603,32251,1,299787,329213
2025-02-26 17:15:53.350,131249,29565,32218,16,299623,329075
2025-02-26 17:15:53.352,131213,29546,32189,4,299458,328888
2025-02-26 17:15:53.354,131180,29520,32156,10,299364,328700
2025-02-26 17:15:53.357,131174,29512,32135,5,299228,328648
2025-02-26 17:15:53.359,131146,29504,32129,7,299162,328534
2025-02-26 17:15:53.361,131132,29495,32101,0,299049,328402
2025-02-26 17:15:53.364,131125,29482,32116,11,299030,328270
2025-02-26 17:15:53.367,131143,29482,32117,0,298948,328298
2025-02-26 17:15:53.370,131164,29494,32108,0,298932,328230
2025-02-26 17:15:53.562,131141,29486,32113,10,298870,328194
2025-02-26 17:15:53.566,131143,29496,32117,0,298891,328127
2025-02-26 17:15:53.569,131144,29506,32117,9,298818,328132
2025-02-26 17:15:53.572,131141,29496,32119,0,298721,328111
2025-02-26 17:15:53.575,131111,29499,32112,10,298698,328072
2025-02-26 17:15:53.578,131098,29494,32119,8,298664,328025
2025-02-26 17:15:53.582,131074,29494,32115,2,298648,327956
2025-02-26 17:15:53.588,131085,29512,32127,0,298722,327935
2025-02-26 17:15:53.593,131094,29528,32154,0,298717,328005
2025-02-26 17:15:53.597,131114,29560,32190,3,298829,328082
2025-02-26 17:15:53.602,131156,29572,32207,6,298853,328172
2025-02-26 17:15:53.606,131179,29603,32219,2,298880,328264
2025-02-26 17:15:53.610,131167,29591,32214,6,298847,328246
2025-02-26 17:15:53.893,131152,29599,32208,5,298843,328190
2025-02-26 17:15:53.895,131137,29613,32213,5,298879,328245
2025-02-26 17:15:53.897,131169,29612,32225,5,298948,328239
2025-02-26 17:15:53.900,131185,29623,32249,9,299011,328305
2025-02-26 17:15:53.902,131202,29638,32264,4,299071,328379
2025-02-26 17:15:53.904,131216,29667,32280,3,299144,328418
2025-02-26 17:15:53.907,131224,29661,32282,0,299155,328460
2025-02-26 17:15:53.909,131215,29667,32281,1,299168,328442
2025-02-26 17:15:53.913,131208,29667,32255,5,299091,328458
2025-02-26 17:15:53.915,131188,29639,32247,0,299047,328394
2025-02-26 17:15:53.917,131154,29629,32231,9,299071,328314
2025-02-26 17:15:53.919,131151,29622,32221,5,299081,328307
2025-02-26 17:15:53.921,131167,29622,32222,4,299050,328306
2025-02-26 17:15:53.923,131174,29623,32221,0,299044,328293
2025-02-26 17:15:53.926,131169,29622,32217,5,299050,328303
2025-02-26 17:15:53.928,131163,29621,32212,7,299056,328297
2025-02-26 17:15:53.931,131162,29590,32201,1,299087,328333
2025-02-26 17:15:53.933,131170,29611,32206,0,299117,328343
2025-02-26 17:15:53.937,131179,29616,32212,0,299205,328382
2025-02-26 17:15:53.941,131208,29622,32230,5,299213,328410
2025-02-26 17:15:54.122,131208,29622,32230,5,299213,328410
2025-02-26 17:15:54.124,131209,29651,32261,0,299233,328451
2025-02-26 17:15:54.127,131225,29651,32258,0,299260,328524
2025-02-26 17:15:54.129,131223,29662,32282,0,299332,328528
2025-02-26 17:15:54.132,131230,29670,32293,4,299413,328590
2025-02-26 17:15:54.134,131262,29688,32297,5,299414,328649
2025-02-26 17:15:54.136,131245,29695,32325,0,299383,328661
2025-02-26 17:15:54.139,131227,29697,32326,4,299313,328686
2025-02-26 17:15:54.142,131218,29710,32341,2,299356,328652
2025-02-26 17:15:54.144,131226,29728,32357,2,299430,328682
2025-02-26 17:15:54.147,131230,29729,32367,6,299511,328752
2025-02-26 17:15:54.149,131268,29755,32401,2,299626,328845
2025-02-26 17:15:54.152,131323,29774,32416,0,299743,328953
2025-02-26 17:15:54.154,131350,29785,32435,14,299750,329087
2025-02-26 17:15:54.156,131333,29794,32458,4,299718,329112
2025-02-26 17:15:54.159,131302,29791,32453,4,299652,329042
2025-02-26 17:15:54.161,131291,29800,32462,0,299622,329004
2025-02-26 17:15:54.163,131280,29806,32461,9,299573,328989
2025-02-26 17:15:54.167,131278,29801,32463,5,299624,328944
2025-02-26 17:15:54.170,131295,29814,32469,3,299661,328988
2025-02-26 17:15:54.381,131310,29829,32488,0,299783,329070
2025-02-26 17:15:54.383,131319,29842,32516,0,299777,329116
2025-02-26 17:15:54.385,131315,29851,32514,3,299796,329149
2025-02-26 17:15:54.389,131335,29867,32537,1,299774,329205
2025-02-26 17:15:54.391,131338,29871,32535,7,299760,329198
2025-02-26 17:15:54.394,131308,29870,32544,9,299686,329191
2025-02-26 17:15:54.396,131304,29877,32545,8,299672,329146
2025-02-26 17:15:54.399,131280,29882,32549,2,299642,329156
2025-02-26 17:15:54.402,131301,29888,32549,0,299704,329133
2025-02-26 17:15:54.403,131288,29907,32561,2,299727,329140
2025-02-26 17:15:54.406,131298,29916,32580,0,299767,329188
2025-02-26 17:15:54.408,131315,29932,32603,3,299738,329235
2025-02-26 17:15:54.410,131325,29925,32607,0,299754,329236
2025-02-26 17:15:54.413,131310,29951,32629,9,299760,329246
2025-02-26 17:15:54.415,131322,29947,32640,12,299777,329273
2025-02-26 17:15:54.418,131351,29965,32644,2,299844,329311
2025-02-26 17:15:54.420,131351,29968,32653,4,299830,329354
2025-02-26 17:15:54.424,131340,29975,32660,11,299836,329351
2025-02-26 17:15:54.428,131328,29973,32636,7,299791,329353
2025-02-26 17:15:54.618,131276,29977,32640,7,299713,329268
2025-02-26 17:15:54.621,131273,29964,32625,4,299705,329186
2025-02-26 17:15:54.623,131247,29960,32624,3,299652,329165
2025-02-26 17:15:54.626,131254,29967,32625,3,299675,329103
2025-02-26 17:15:54.629,131260,29989,32631,9,299776,329135
2025-02-26 17:15:54.631,131313,29987,32642,0,299848,329212
2025-02-26 17:15:54.633,131311,30013,32652,0,299907,329279
2025-02-26 17:15:54.635,131303,30000,32660,7,299922,329314
2025-02-26 17:15:54.639,131315,30003,32665,6,299962,329367
2025-02-26 17:15:54.641,131310,29999,32654,11,299919,329343
2025-02-26 17:15:54.644,131324,29997,32635,7,299979,329335
2025-02-26 17:15:54.646,131303,29982,32637,6,299913,329387
2025-02-26 17:15:54.648,131303,29982,32637,6,299913,329387
2025-02-26 17:15:54.650,131285,29976,32627,0,299918,329330
2025-02-26 17:15:54.652,131273,29975,32626,1,299922,329280
2025-02-26 17:15:54.654,131291,29977,32641,6,299999,329322
2025-02-26 17:15:54.657,131303,29980,32648,11,299994,329339
2025-02-26 17:15:54.659,131306,29995,32662,0,300024,329410
2025-02-26 17:15:54.663,131341,29995,32682,5,300101,329369
2025-02-26 17:15:54.666,131347,30017,32692,1,300122,329506
2025-02-26 17:15:54.870,131337,29999,32683,5,300172,329490
2025-02-26 17:15:54.873,131336,30017,32702,4,300144,329466
2025-02-26 17:15:54.876,131336,30017,32702,4,300144,329466
2025-02-26 17:15:54.880,131365,30033,32721,4,300206,329612
2025-02-26 17:15:54.883,131371,30046,32756,4,300312,329692
2025-02-26 17:15:54.887,131387,30067,32765,4,300315,329743
2025-02-26 17:15:54.891,131388,30078,32779,0,300321,329697
2025-02-26 17:15:54.894,131375,30078,32779,3,300263,329768
2025-02-26 17:15:54.898,131369,30092,32783,0,300244,329711
2025-02-26 17:15:54.902,131365,30081,32794,0,300236,329683
2025-02-26 17:15:54.906,131360,30083,32790,9,300248,329698
2025-02-26 17:15:54.910,131367,30089,32801,2,300306,329728
2025-02-26 17:15:54.915,131397,30116,32821,7,300375,329798
2025-02-26 17:15:54.920,131412,30138,32840,11,300489,329820
2025-02-26 17:15:55.150,131435,30156,32857,4,300460,329951
2025-02-26 17:15:55.154,131435,30149,32866,2,300421,329963
2025-02-26 17:15:55.156,131411,30144,32855,4,300409,329966
2025-02-26 17:15:55.159,131402,30152,32854,0,300351,329906
2025-02-26 17:15:55.162,131397,30140,32844,5,300347,329798
2025-02-26 17:15:55.164,131382,30132,32840,5,300299,329782
2025-02-26 17:15:55.167,131358,30128,32837,8,300323,329776
2025-02-26 17:15:55.169,131375,30138,32849,6,300371,329813
2025-02-26 17:15:55.171,131395,30144,32855,4,300414,329849
2025-02-26 17:15:55.174,131397,30144,32863,2,300411,329910
2025-02-26 17:15:55.176,131407,30150,32870,2,300357,329872
2025-02-26 17:15:55.178,131414,30163,32870,2,300364,329866
2025-02-26 17:15:55.181,131407,30158,32864,3,300347,329832
2025-02-26 17:15:55.183,131401,30152,32862,0,300393,329842
2025-02-26 17:15:55.186,131407,30156,32872,0,300442,329880
2025-02-26 17:15:55.189,131424,30173,32898,2,300493,329941
2025-02-26 17:15:55.194,131437,30182,32890,4,300530,329994
2025-02-26 17:15:55.199,131432,30173,32900,0,300510,330031
2025-02-26 17:15:55.435,131404,30166,32892,2,300434,330000
2025-02-26 17:15:55.439,131396,30167,32892,2,300376,329976
2025-02-26 17:15:55.442,131383,30164,32887,2,300347,329941
2025-02-26 17:15:55.445,131382,30164,32885,6,300314,329887
2025-02-26 17:15:55.448,131364,30161,32887,2,300343,329856
2025-02-26 17:15:55.451,131370,30162,32878,0,300347,329876
2025-02-26 17:15:55.453,131364,30167,32886,6,300327,329856
2025-02-26 17:15:55.456,131360,30176,32888,5,300353,329837
2025-02-26 17:15:55.459,131360,30172,32897,4,300364,329823
2025-02-26 17:15:55.461,131358,30175,32910,9,300335,329807
2025-02-26 17:15:55.463,131362,30185,32897,5,300287,329763
2025-02-26 17:15:55.465,131362,30185,32897,5,300287,329763
2025-02-26 17:15:55.468,131349,30172,32894,0,300214,329667
2025-02-26 17:15:55.471,131359,30164,32893,8,300173,329628
2025-02-26 17:15:55.473,131331,30160,32874,4,300115,329564
2025-02-26 17:15:55.476,131329,30149,32857,1,300055,329491
2025-02-26 17:15:55.478,131289,30122,32842,2,299933,329418
2025-02-26 17:15:55.482,131283,30114,32822,1,299883,329325
2025-02-26 17:15:55.718,131239,30095,32809,6,299861,329259
2025-02-26 17:15:55.721,131232,30097,32809,3,299895,329150
2025-02-26 17:15:55.723,131234,30102,32809,5,299853,329160
2025-02-26 17:15:55.726,131241,30103,32818,8,299849,329192
2025-02-26 17:15:55.728,131252,30106,32826,3,299840,329154
2025-02-26 17:15:55.730,131237,30103,32832,0,299722,329177
2025-02-26 17:15:55.732,131196,30112,32830,7,299549,329030
2025-02-26 17:15:55.735,131186,30106,32826,0,299339,328850
2025-02-26 17:15:55.738,131113,30093,32824,15,299070,328657
2025-02-26 17:15:55.740,131059,30069,32813,9,298802,328370
2025-02-26 17:15:55.742,131015,30050,32781,10,298531,328067
2025-02-26 17:15:55.744,130954,30037,32766,2,298374,327782
2025-02-26 17:15:55.746,130931,30028,32749,2,298382,327695
2025-02-26 17:15:55.749,130913,30023,32754,2,298381,327649
2025-02-26 17:15:55.751,130929,30042,32764,2,298368,327620
2025-02-26 17:15:55.753,130916,30072,32777,7,298348,327642
2025-02-26 17:15:55.755,130929,30077,32794,7,298405,327645
2025-02-26 17:15:55.758,130951,30084,32801,8,298428,327688
2025-02-26 17:15:55.762,130945,30094,32805,2,298570,327742
2025-02-26 17:15:55.764,130952,30099,32813,2,298683,327816
2025-02-26 17:15:55.767,130967,30102,32808,2,298771,327936
2025-02-26 17:15:55.974,130966,30111,32802,3,298913,328079
2025-02-26 17:15:55.977,130971,30102,32806,0,298934,328184
2025-02-26 17:15:55.979,130969,30103,32808,5,299019,328249
2025-02-26 17:15:55.981,131024,30115,32832,5,299048,328304
2025-02-26 17:15:55.984,131045,30130,32845,3,299080,328365
2025-02-26 17:15:55.987,131060,30139,32851,4,299145,328414
2025-02-26 17:15:55.990,131118,30163,32869,2,299229,328462
2025-02-26 17:15:55.992,131141,30185,32889,0,299327,328579
2025-02-26 17:15:55.994,131187,30202,32928,2,299482,328674
2025-02-26 17:15:55.996,131210,30217,32946,0,299595,328804
2025-02-26 17:15:55.999,131244,30240,32965,4,299706,328974
2025-02-26 17:15:56.002,131273,30246,32976,1,299803,329088
2025-02-26 17:15:56.005,131293,30257,32979,2,299859,329214
2025-02-26 17:15:56.007,131297,30261,32983,5,299835,329248
2025-02-26 17:15:56.009,131321,30272,33004,0,299839,329218
2025-02-26 17:15:56.011,131314,30255,33005,7,299797,329266
2025-02-26 17:15:56.014,131295,30262,32998,2,299714,329223
2025-02-26 17:15:56.017,131271,30238,32983,3,299638,329139
2025-02-26 17:15:56.020,131251,30228,32968,4,299533,329051
2025-02-26 17:15:56.023,131221,30224,32956,3,299485,328923
2025-02-26 17:15:56.195,131195,30211,32964,5,299380,328894
2025-02-26 17:15:56.199,131167,30202,32934,3,299353,328808
2025-02-26 17:15:56.203,131131,30188,32928,0,299263,328695
2025-02-26 17:15:56.206,131101,30167,32894,0,299145,328535
2025-02-26 17:15:56.209,131074,30147,32863,4,299035,328401
2025-02-26 17:15:56.211,131052,30130,32839,3,299044,328386
2025-02-26 17:15:56.214,131053,30116,32817,0,299036,328290
2025-02-26 17:15:56.217,131026,30104,32800,8,299031,328306
2025-02-26 17:15:56.220,131019,30101,32786,2,299064,328273
2025-02-26 17:15:56.223,131034,30087,32770,2,299046,328273
2025-02-26 17:15:56.227,131018,30069,32745,9,299009,328266
2025-02-26 17:15:56.230,131014,30047,32739,8,299020,328216
2025-02-26 17:15:56.232,131002,30050,32712,1,299046,328181
2025-02-26 17:15:56.235,131027,30024,32699,0,298999,328203
2025-02-26 17:15:56.239,131027,30034,32698,2,299104,328232
2025-02-26 17:15:56.242,131043,30029,32695,2,299201,328286
2025-02-26 17:15:56.443,131069,30046,32703,4,299270,328381
2025-02-26 17:15:56.447,131084,30043,32728,6,299363,328441
2025-02-26 17:15:56.450,131107,30056,32726,3,299390,328556
2025-02-26 17:15:56.452,131118,30046,32729,3,299449,328627
2025-02-26 17:15:56.455,131112,30047,32734,11,299463,328659
2025-02-26 17:15:56.458,131124,30029,32718,9,299366,328643
2025-02-26 17:15:56.460,131083,30012,32683,6,299303,328635
2025-02-26 17:15:56.463,131044,30003,32685,6,299263,328476
2025-02-26 17:15:56.465,131016,29981,32670,1,299175,328443
2025-02-26 17:15:56.468,131025,29983,32674,9,299148,328379
2025-02-26 17:15:56.471,131017,29974,32660,3,299084,328318
2025-02-26 17:15:56.473,131014,29976,32678,4,299084,328338
2025-02-26 17:15:56.475,130987,29983,32676,1,299120,328304
2025-02-26 17:15:56.478,131007,29973,32675,4,299065,328326
2025-02-26 17:15:56.480,130984,29970,32665,6,299040,328271
2025-02-26 17:15:56.483,130974,29969,32663,2,298986,328226
2025-02-26 17:15:56.485,130976,29964,32668,6,298942,328167
2025-02-26 17:15:56.490,130975,29959,32665,13,298932,328151
2025-02-26 17:15:56.692,130967,29952,32665,0,298892,328075
2025-02-26 17:15:56.695,130953,29945,32672,3,298871,328025
2025-02-26 17:15:56.698,130961,29953,32661,13,298801,327987
2025-02-26 17:15:56.701,130965,29947,32666,3,298728,327946
2025-02-26 17:15:56.704,130950,29941,32654,2,298647,327895
2025-02-26 17:15:56.706,130931,29924,32652,2,298564,327801
2025-02-26 17:15:56.709,130934,29929,32659,10,298437,327674
2025-02-26 17:15:56.712,130925,29927,32653,3,298281,327520
2025-02-26 17:15:56.714,130907,29935,32667,0,298101,327410
2025-02-26 17:15:56.717,130864,29911,32658,0,297903,327239
2025-02-26 17:15:56.719,130837,29907,32658,0,297663,327048
2025-02-26 17:15:56.721,130794,29903,32643,2,297410,326764
2025-02-26 17:15:56.723,130726,29895,32641,3,297093,326496
2025-02-26 17:15:56.726,130659,29874,32619,10,296793,326242
2025-02-26 17:15:56.728,130591,29857,32602,7,296511,325890
2025-02-26 17:15:56.730,130541,29841,32580,3,296203,325597
2025-02-26 17:15:56.733,130487,29830,32566,2,295895,325311
2025-02-26 17:15:56.735,130419,29822,32543,7,295541,324994
2025-02-26 17:15:56.741,130337,29786,32520,8,295242,324704
2025-02-26 17:15:56.969,130337,29786,32520,8,295242,324704
2025-02-26 17:15:56.974,130188,29755,32481,0,294783,324153
2025-02-26 17:15:56.977,130106,29734,32446,0,294572,323885
2025-02-26 17:15:56.980,130035,29730,32437,4,294441,323728
2025-02-26 17:15:56.984,130013,29727,32447,8,294313,323527
2025-02-26 17:15:56.988,129985,29739,32458,8,294169,323391
2025-02-26 17:15:56.992,129992,29758,32487,6,294081,323262
2025-02-26 17:15:56.995,129998,29774,32511,7,294074,323178
2025-02-26 17:15:56.999,130034,29799,32537,12,294031,323114
2025-02-26 17:15:57.002,130067,29827,32579,12,294100,323127
2025-02-26 17:15:57.005,130111,29853,32598,1,294179,323126
2025-02-26 17:15:57.008,130139,29871,32598,8,294285,323264
2025-02-26 17:15:57.011,130186,29862,32619,10,294320,323327
2025-02-26 17:15:57.014,130222,29873,32613,6,294387,323375
2025-02-26 17:15:57.238,130240,29871,32608,4,294446,323413
2025-02-26 17:15:57.241,130257,29865,32604,3,294520,323472
2025-02-26 17:15:57.244,130285,29853,32599,7,294567,323559
2025-02-26 17:15:57.247,130271,29843,32592,9,294596,323615
2025-02-26 17:15:57.250,130282,29839,32596,2,294612,323584
2025-02-26 17:15:57.252,130277,29834,32559,1,294659,323642
2025-02-26 17:15:57.255,130274,29814,32568,12,294660,323654
2025-02-26 17:15:57.257,130274,29811,32566,0,294664,323658
2025-02-26 17:15:57.260,130269,29806,32558,0,294631,323659
2025-02-26 17:15:57.264,130271,29797,32563,5,294601,323616
2025-02-26 17:15:57.268,130278,29788,32551,2,294505,323579
2025-02-26 17:15:57.271,130262,29781,32545,1,294446,323523
2025-02-26 17:15:57.274,130239,29781,32546,4,294408,323437
2025-02-26 17:15:57.277,130225,29776,32530,13,294417,323423
2025-02-26 17:15:57.280,130203,29764,32524,10,294372,323413
2025-02-26 17:15:57.284,130172,29743,32514,7,294358,323360
2025-02-26 17:15:57.287,130149,29731,32494,3,294369,323371
2025-02-26 17:15:57.671,130149,29720,32477,12,294375,323361
2025-02-26 17:15:57.674,130142,29720,32469,3,294400,323379
2025-02-26 17:15:57.676,130152,29721,32468,3,294473,323405
2025-02-26 17:15:57.678,130159,29716,32471,4,294499,323445
2025-02-26 17:15:57.680,130151,29710,32465,6,294546,323468
2025-02-26 17:15:57.682,130169,29710,32452,8,294540,323512
2025-02-26 17:15:57.684,130153,29693,32431,5,294540,323540
2025-02-26 17:15:57.688,130120,29666,32398,1,294580,323484
2025-02-26 17:15:57.690,130113,29671,32384,0,294668,323546
2025-02-26 17:15:57.692,130132,29662,32356,0,294969,323611
2025-02-26 17:15:57.694,130165,29674,32338,2,295312,323903
2025-02-26 17:15:57.697,130236,29660,32306,7,295420,324256
2025-02-26 17:15:57.699,130321,29665,32337,1,295504,324446
2025-02-26 17:15:57.702,130381,29686,32361,7,295440,324471
2025-02-26 17:15:57.704,130433,29688,32374,0,295409,324433
2025-02-26 17:15:57.706,130425,29694,32386,3,295277,324402
2025-02-26 17:15:57.708,130432,29666,32377,8,295217,324280
2025-02-26 17:15:57.711,130439,29669,32390,2,295174,324215
2025-02-26 17:15:57.714,130434,29680,32413,3,295154,324134
2025-02-26 17:15:57.717,130474,29687,32428,3,295222,324215
2025-02-26 17:15:57.720,130466,29698,32463,11,295194,324243
2025-02-26 17:15:57.924,130483,29721,32486,0,295233,324230
2025-02-26 17:15:57.927,130500,29738,32511,6,295312,324270
2025-02-26 17:15:57.930,130527,29744,32539,7,295381,324311
2025-02-26 17:15:57.933,130539,29763,32558,9,295418,324420
2025-02-26 17:15:57.936,130541,29784,32584,7,295532,324452
2025-02-26 17:15:57.941,130553,29796,32597,1,295599,324536
2025-02-26 17:15:57.945,130554,29791,32629,11,295645,324623
2025-02-26 17:15:57.950,130545,29813,32631,5,295717,324677
2025-02-26 17:15:57.953,130545,29817,32629,2,295720,324686
2025-02-26 17:15:57.956,130509,29827,32639,2,295740,324660
2025-02-26 17:15:57.958,130507,29813,32624,7,295735,324671
2025-02-26 17:15:57.961,130481,29801,32607,7,295686,324696
2025-02-26 17:15:57.963,130438,29778,32587,2,295641,324631
2025-02-26 17:15:57.966,130422,29754,32548,0,295596,324578
2025-02-26 17:15:57.968,130377,29729,32502,0,295500,324473
2025-02-26 17:15:57.972,130361,29686,32469,4,295452,324450
2025-02-26 17:15:58.242,130325,29664,32440,2,295376,324317
2025-02-26 17:15:58.244,130306,29640,32404,4,295349,324288
2025-02-26 17:15:58.247,130320,29629,32380,7,295383,324317
2025-02-26 17:15:58.249,130298,29599,32356,3,295382,324261
2025-02-26 17:15:58.252,130274,29582,32344,6,295440,324365
2025-02-26 17:15:58.254,130263,29571,32305,3,295578,324374
2025-02-26 17:15:58.256,130261,29547,32295,2,295620,324472
2025-02-26 17:15:58.259,130265,29529,32271,0,295689,324501
2025-02-26 17:15:58.262,130259,29518,32245,0,295696,324630
2025-02-26 17:15:58.264,130284,29520,32249,14,295736,324595
2025-02-26 17:15:58.266,130266,29505,32246,0,295818,324691
2025-02-26 17:15:58.268,130287,29514,32257,0,295867,324732
2025-02-26 17:15:58.271,130306,29516,32258,3,295921,324757
2025-02-26 17:15:58.274,130305,29517,32264,0,296041,324868
2025-02-26 17:15:58.276,130328,29509,32255,1,296097,324963
2025-02-26 17:15:58.279,130324,29511,32261,4,296286,325041
2025-02-26 17:15:58.282,130373,29521,32255,4,296606,325241
2025-02-26 17:15:58.284,130415,29522,32271,6,297048,325609
2025-02-26 17:15:58.287,130494,29548,32293,1,297544,326024
2025-02-26 17:15:58.290,130566,29563,32308,9,297985,326551
2025-02-26 17:15:58.504,130625,29579,32344,11,298313,326971
2025-02-26 17:15:58.507,130691,29599,32361,1,298633,327365
2025-02-26 17:15:58.510,130750,29621,32375,7,298837,327625
2025-02-26 17:15:58.513,130789,29616,32372,10,299028,327857
2025-02-26 17:15:58.517,130828,29617,32374,2,299147,328081
2025-02-26 17:15:58.521,130863,29598,32363,7,299302,328195
2025-02-26 17:15:58.524,130861,29590,32355,6,299412,328310
2025-02-26 17:15:58.527,130884,29568,32339,6,299520,328436
2025-02-26 17:15:58.529,130903,29561,32327,5,299644,328590
2025-02-26 17:15:58.534,130929,29559,32336,8,299764,328700
2025-02-26 17:15:58.538,130925,29547,32330,2,299780,328746
2025-02-26 17:15:58.542,130923,29554,32336,0,299794,328788
2025-02-26 17:15:58.547,130916,29557,32334,5,299750,328780
2025-02-26 17:15:58.550,130916,29557,32334,5,299750,328780
2025-02-26 17:15:58.907,130925,29560,32343,3,299709,328746
2025-02-26 17:15:58.911,130909,29546,32347,0,299683,328730
2025-02-26 17:15:58.915,130916,29556,32349,8,299641,328709
2025-02-26 17:15:58.919,130884,29550,32327,0,299573,328652
2025-02-26 17:15:58.923,130854,29533,32326,7,299521,328621
2025-02-26 17:15:58.927,130851,29539,32328,6,299471,328572
2025-02-26 17:15:58.930,130844,29535,32336,10,299437,328518
2025-02-26 17:15:58.934,130828,29545,32352,4,299409,328472
2025-02-26 17:15:58.937,130818,29554,32346,8,299353,328411
2025-02-26 17:15:58.942,130809,29553,32359,7,299320,328408
2025-02-26 17:15:58.947,130813,29561,32359,2,299256,328363
2025-02-26 17:15:58.952,130797,29540,32355,2,299214,328284
2025-02-26 17:15:59.262,130776,29530,32334,8,299114,328234
2025-02-26 17:15:59.266,130741,29527,32324,0,299005,328114
2025-02-26 17:15:59.271,130709,29515,32296,0,298912,328048
2025-02-26 17:15:59.276,130668,29480,32264,2,298794,327919
2025-02-26 17:15:59.280,130618,29446,32226,8,298704,327781
2025-02-26 17:15:59.285,130572,29419,32193,2,298623,327641
2025-02-26 17:15:59.290,130516,29393,32156,5,298573,327577
2025-02-26 17:15:59.295,130481,29374,32120,3,298542,327459
2025-02-26 17:15:59.300,130447,29338,32087,1,298449,327419
2025-02-26 17:15:59.304,130417,29304,32036,0,298377,327374
2025-02-26 17:15:59.309,130378,29268,31988,5,298271,327265
2025-02-26 17:15:59.658,130355,29235,31942,0,298190,327178
2025-02-26 17:15:59.661,130349,29205,31905,2,298167,327068
2025-02-26 17:15:59.665,130337,29188,31890,7,298196,327024
2025-02-26 17:15:59.668,130376,29187,31890,6,298275,327060
2025-02-26 17:15:59.671,130416,29178,31889,12,298405,327170
2025-02-26 17:15:59.674,130444,29193,31915,0,298542,327329
2025-02-26 17:15:59.677,130515,29216,31940,2,298699,327454
2025-02-26 17:15:59.681,130572,29234,31964,10,298855,327588
2025-02-26 17:15:59.686,130636,29264,32008,4,299025,327776
2025-02-26 17:15:59.691,130688,29280,32048,0,299196,327976
2025-02-26 17:15:59.697,130734,29299,32071,3,299269,328059
2025-02-26 17:15:59.702,130779,29317,32098,4,299376,328215
2025-02-26 17:15:59.707,130789,29329,32128,7,299386,328297
2025-02-26 17:15:59.995,130818,29337,32142,2,299415,328299
2025-02-26 17:15:59.998,130805,29343,32156,0,299377,328337
2025-02-26 17:16:00.003,130785,29344,32168,5,299355,328314
2025-02-26 17:16:00.008,130749,29328,32162,0,299223,328260
2025-02-26 17:16:00.013,130700,29322,32138,1,299067,328115
2025-02-26 17:16:00.016,130656,29300,32121,4,298903,327971
2025-02-26 17:16:00.019,130583,29288,32102,9,298650,327802
2025-02-26 17:16:00.022,130518,29268,32063,2,298369,327538
2025-02-26 17:16:00.027,130452,29237,32035,1,298053,327255
2025-02-26 17:16:00.032,130386,29203,32013,3,297770,326932
2025-02-26 17:16:00.037,130342,29194,31967,3,297481,326652
2025-02-26 17:16:00.041,130274,29152,31922,0,297273,326300
2025-02-26 17:16:00.258,130218,29111,31889,0,297179,326116
2025-02-26 17:16:00.262,130192,29097,31850,1,297070,326043
2025-02-26 17:16:00.265,130155,29077,31829,6,296992,325891
2025-02-26 17:16:00.269,130148,29083,31825,0,296990,325830
2025-02-26 17:16:00.272,130144,29069,31816,4,296985,325790
2025-02-26 17:16:00.276,130150,29078,31815,1,296942,325821
2025-02-26 17:16:00.280,130179,29087,31818,0,296957,325792
2025-02-26 17:16:00.284,130190,29072,31820,8,296984,325843
2025-02-26 17:16:00.287,130204,29087,31833,7,297008,325805
2025-02-26 17:16:00.291,130225,29082,31809,8,297075,325831
2025-02-26 17:16:00.295,130206,29065,31803,1,297119,325924
2025-02-26 17:16:00.299,130190,29054,31787,0,297158,325953
2025-02-26 17:16:00.304,130187,29045,31783,0,297185,325962
2025-02-26 17:16:00.307,130180,29034,31767,5,297203,325979
2025-02-26 17:16:00.546,130172,29047,31777,2,297232,326070
2025-02-26 17:16:00.548,130178,29035,31775,1,297284,326086
2025-02-26 17:16:00.551,130183,29045,31764,5,297281,326105
2025-02-26 17:16:00.553,130187,29044,31772,4,297324,326129
2025-02-26 17:16:00.556,130196,29055,31780,3,297365,326174
2025-02-26 17:16:00.558,130206,29061,31804,8,297406,326203
2025-02-26 17:16:00.561,130225,29077,31819,2,297435,326279
2025-02-26 17:16:00.563,130240,29091,31840,9,297481,326292
2025-02-26 17:16:00.565,130268,29099,31864,7,297505,326299
2025-02-26 17:16:00.567,130270,29111,31876,5,297490,326359
2025-02-26 17:16:00.569,130271,29129,31891,3,297551,326337
2025-02-26 17:16:00.571,130296,29122,31895,2,297599,326330
2025-02-26 17:16:00.573,130305,29126,31886,6,297612,326338
2025-02-26 17:16:00.576,130322,29136,31884,4,297641,326376
2025-02-26 17:16:00.578,130339,29133,31884,0,297681,326353
2025-02-26 17:16:00.581,130369,29128,31885,6,297737,326394
2025-02-26 17:16:00.584,130379,29123,31875,6,297752,326413
2025-02-26 17:16:00.589,130385,29108,31854,0,297769,326479
2025-02-26 17:16:00.591,130367,29080,31827,2,297686,326446
2025-02-26 17:16:00.595,130334,29046,31789,2,297595,326413
2025-02-26 17:16:00.805,130272,29004,31746,0,297518,326276
2025-02-26 17:16:00.808,130237,28961,31708,3,297420,326214
2025-02-26 17:16:00.810,130190,28926,31676,0,297341,326092
2025-02-26 17:16:00.812,130145,28912,31651,8,297276,325958
2025-02-26 17:16:00.814,130148,28903,31637,3,297213,325928
2025-02-26 17:16:00.816,130139,28896,31637,3,297190,325857
2025-02-26 17:16:00.819,130124,28894,31616,2,297123,325829
2025-02-26 17:16:00.821,130122,28869,31616,8,297024,325795
2025-02-26 17:16:00.823,130094,28862,31604,9,297043,325679
2025-02-26 17:16:00.824,130085,28854,31596,0,297008,325689
2025-02-26 17:16:00.826,130088,28858,31591,3,297053,325670
2025-02-26 17:16:00.828,130100,28850,31590,11,297179,325654
2025-02-26 17:16:00.830,130106,28878,31599,0,297263,325795
2025-02-26 17:16:00.832,130130,28876,31614,2,297364,325896
2025-02-26 17:16:00.834,130147,28891,31621,2,297434,325967
2025-02-26 17:16:00.837,130161,28895,31623,6,297496,326076
2025-02-26 17:16:00.840,130149,28891,31602,4,297480,326089
2025-02-26 17:16:00.842,130136,28868,31596,6,297420,326038
2025-02-26 17:16:00.845,130136,28868,31596,6,297420,326038
2025-02-26 17:16:00.848,130088,28832,31548,1,297304,325879
2025-02-26 17:16:00.851,130065,28830,31531,7,297294,325839
2025-02-26 17:16:00.853,130090,28821,31532,2,297324,325842
2025-02-26 17:16:01.006,130111,28836,31560,6,297254,325870
2025-02-26 17:16:01.009,130121,28845,31557,0,297333,325842
2025-02-26 17:16:01.012,130157,28851,31573,3,297356,325881
2025-02-26 17:16:01.015,130156,28859,31579,12,297342,325934
2025-02-26 17:16:01.019,130181,28873,31592,6,297393,325923
2025-02-26 17:16:01.022,130208,28887,31625,5,297381,325963
2025-02-26 17:16:01.025,130241,28906,31639,5,297474,325984
2025-02-26 17:16:01.028,130257,28909,31655,2,297494,326028
2025-02-26 17:16:01.030,130279,28922,31676,4,297530,326055
2025-02-26 17:16:01.033,130289,28923,31672,6,297502,326087
2025-02-26 17:16:01.035,130280,28927,31667,7,297452,326046
2025-02-26 17:16:01.039,130268,28901,31657,0,297379,326007
2025-02-26 17:16:01.041,130238,28893,31632,0,297296,325923
2025-02-26 17:16:01.045,130230,28882,31621,6,297241,325875
2025-02-26 17:16:01.048,130182,28857,31598,7,297154,325780
2025-02-26 17:16:01.051,130173,28849,31584,10,297099,325706
2025-02-26 17:16:01.053,130150,28849,31580,3,297033,325586
2025-02-26 17:16:01.271,130133,28829,31562,0,297055,325570
2025-02-26 17:16:01.273,130135,28826,31550,13,296990,325524
2025-02-26 17:16:01.277,130106,28824,31534,2,296934,325523
2025-02-26 17:16:01.280,130086,28815,31525,0,296902,325417
2025-02-26 17:16:01.282,130042,28791,31509,7,296875,325408
2025-02-26 17:16:01.285,130056,28793,31484,10,296852,325389
2025-02-26 17:16:01.288,130020,28779,31483,2,296848,325365
2025-02-26 17:16:01.291,130019,28772,31465,6,296840,325303
2025-02-26 17:16:01.293,130000,28772,31457,5,296876,325316
2025-02-26 17:16:01.296,130002,28760,31445,5,296884,325287
2025-02-26 17:16:01.299,130005,28755,31439,6,296974,325321
2025-02-26 17:16:01.301,130005,28761,31433,9,297073,325366
2025-02-26 17:16:01.303,130024,28765,31418,5,297159,325372
2025-02-26 17:16:01.305,130063,28757,31417,4,297197,325430
2025-02-26 17:16:01.307,130068,28750,31411,8,297282,325538
2025-02-26 17:16:01.309,130101,28733,31383,4,297281,325587
2025-02-26 17:16:01.311,130090,28708,31366,3,297340,325584
2025-02-26 17:16:01.314,130070,28693,31328,9,297256,325569
2025-02-26 17:16:01.318,130043,28665,31306,3,297266,325522
2025-02-26 17:16:01.516,130018,28637,31278,10,297176,325483
2025-02-26 17:16:01.518,129998,28599,31231,3,297047,325423
2025-02-26 17:16:01.520,129919,28559,31211,11,296949,325303
2025-02-26 17:16:01.523,129883,28540,31174,3,296856,325180
2025-02-26 17:16:01.525,129887,28516,31150,7,296746,325051
2025-02-26 17:16:01.527,129857,28507,31147,0,296705,324984
2025-02-26 17:16:01.529,129863,28507,31151,3,296673,324923
2025-02-26 17:16:01.532,129874,28520,31162,6,296694,324894
2025-02-26 17:16:01.534,129905,28541,31182,8,296717,324918
2025-02-26 17:16:01.536,129946,28575,31218,2,296806,324991
2025-02-26 17:16:01.539,130007,28597,31267,6,296911,325078
2025-02-26 17:16:01.541,130037,28624,31283,5,297048,325163
2025-02-26 17:16:01.544,130067,28647,31318,9,297129,325295
2025-02-26 17:16:01.546,130081,28662,31322,11,297187,325345
2025-02-26 17:16:01.548,130073,28671,31341,3,297278,325408
2025-02-26 17:16:01.551,130079,28663,31336,10,297310,325465
2025-02-26 17:16:01.553,130089,28672,31329,0,297348,325488
2025-02-26 17:16:01.555,130105,28667,31339,1,297331,325508
2025-02-26 17:16:01.559,130093,28669,31325,12,297284,325466
2025-02-26 17:16:01.562,130076,28649,31315,1,297173,325402
2025-02-26 17:16:01.564,130067,28653,31300,0,297086,325315
2025-02-26 17:16:01.779,130019,28607,31269,0,296967,325144
2025-02-26 17:16:01.782,129986,28589,31232,5,296881,325026
2025-02-26 17:16:01.784,129922,28546,31184,0,296777,324919
2025-02-26 17:16:01.786,129871,28525,31135,0,296717,324844
2025-02-26 17:16:01.790,129843,28497,31116,7,296694,324719
2025-02-26 17:16:01.792,129819,28492,31096,5,296663,324721
2025-02-26 17:16:01.795,129804,28485,31087,3,296678,324723
2025-02-26 17:16:01.797,129812,28484,31088,0,296705,324687
2025-02-26 17:16:01.799,129836,28476,31087,1,296704,324695
2025-02-26 17:16:01.801,129842,28471,31079,6,296712,324738
2025-02-26 17:16:01.804,129839,28485,31081,3,296743,324765
2025-02-26 17:16:01.806,129848,28503,31083,4,296832,324758
2025-02-26 17:16:01.808,129857,28487,31075,6,296920,324846
2025-02-26 17:16:01.811,129860,28496,31093,5,296995,324883
2025-02-26 17:16:01.814,129884,28501,31099,8,297086,324976
2025-02-26 17:16:01.816,129886,28511,31109,9,297152,325104
2025-02-26 17:16:01.819,129915,28509,31129,0,297205,325149
2025-02-26 17:16:01.822,129925,28527,31121,0,297265,325156
2025-02-26 17:16:01.826,129929,28524,31135,1,297223,325182
2025-02-26 17:16:02.036,129960,28545,31143,3,297257,325260
2025-02-26 17:16:02.038,129956,28519,31158,2,297271,325249
2025-02-26 17:16:02.040,129965,28547,31171,1,297270,325253
2025-02-26 17:16:02.042,130002,28573,31183,1,297312,325302
2025-02-26 17:16:02.045,130010,28587,31208,2,297369,325289
2025-02-26 17:16:02.047,130020,28608,31229,3,297399,325339
2025-02-26 17:16:02.049,130039,28620,31255,9,297467,325414
2025-02-26 17:16:02.052,130022,28624,31255,0,297501,325476
2025-02-26 17:16:02.054,130018,28619,31248,7,297485,325469
2025-02-26 17:16:02.055,129985,28610,31236,3,297426,325411
2025-02-26 17:16:02.057,129969,28592,31211,5,297418,325330
2025-02-26 17:16:02.059,129947,28565,31181,5,297384,325278
2025-02-26 17:16:02.061,129932,28563,31148,6,297319,325246
2025-02-26 17:16:02.063,129934,28538,31124,6,297217,325159
2025-02-26 17:16:02.065,129888,28517,31089,5,297144,325063
2025-02-26 17:16:02.068,129874,28466,31039,2,297067,324960
2025-02-26 17:16:02.071,129831,28433,30991,3,296965,324858
2025-02-26 17:16:02.074,129815,28387,30940,0,296904,324798
2025-02-26 17:16:02.077,129754,28351,30892,1,296839,324701
2025-02-26 17:16:02.081,129726,28305,30832,6,296737,324577
2025-02-26 17:16:02.084,129695,28287,30803,3,296710,324502
2025-02-26 17:16:02.315,129695,28287,30803,3,296710,324502
2025-02-26 17:16:02.317,129676,28263,30781,7,296806,324430
2025-02-26 17:16:02.319,129685,28245,30782,0,296855,324520
2025-02-26 17:16:02.322,129709,28266,30813,3,296925,324604
2025-02-26 17:16:02.324,129746,28272,30829,6,296963,324638
2025-02-26 17:16:02.327,129752,28294,30844,0,296977,324711
2025-02-26 17:16:02.330,129762,28294,30846,4,296971,324660
2025-02-26 17:16:02.332,129759,28301,30874,0,297014,324638
2025-02-26 17:16:02.334,129766,28312,30890,2,297029,324721
2025-02-26 17:16:02.336,129786,28329,30910,0,297100,324728
2025-02-26 17:16:02.338,129792,28353,30934,9,297216,324784
2025-02-26 17:16:02.341,129835,28380,30966,4,297295,324871
2025-02-26 17:16:02.343,129871,28403,30993,0,297329,324973
2025-02-26 17:16:02.345,129900,28414,31017,0,297358,325005
2025-02-26 17:16:02.348,129925,28436,31036,4,297381,325011
2025-02-26 17:16:02.350,129942,28465,31052,0,297447,325013
2025-02-26 17:16:02.352,129987,28480,31082,7,297493,325038
2025-02-26 17:16:02.355,130008,28500,31100,4,297583,325183
2025-02-26 17:16:02.358,130029,28516,31116,0,297634,325216
2025-02-26 17:16:02.361,130023,28527,31144,0,297675,325271
2025-02-26 17:16:02.363,130065,28539,31164,7,297717,325308
2025-02-26 17:16:02.552,130070,28549,31173,4,297697,325360
2025-02-26 17:16:02.554,130084,28553,31178,0,297689,325340
2025-02-26 17:16:02.557,130091,28561,31178,9,297622,325309
2025-02-26 17:16:02.559,130070,28545,31175,0,297527,325261
2025-02-26 17:16:02.561,130050,28535,31163,0,297441,325141
2025-02-26 17:16:02.564,130021,28510,31132,8,297250,325030
2025-02-26 17:16:02.566,129978,28482,31109,0,297106,324866
2025-02-26 17:16:02.568,129944,28458,31093,3,296963,324666
2025-02-26 17:16:02.571,129884,28432,31046,0,296848,324546
2025-02-26 17:16:02.573,129844,28406,31015,0,296740,324420
2025-02-26 17:16:02.576,129802,28385,30992,0,296727,324328
2025-02-26 17:16:02.578,129806,28381,30984,5,296743,324270
2025-02-26 17:16:02.580,129822,28376,30973,0,296716,324284
2025-02-26 17:16:02.582,129833,28360,30977,5,296689,324274
2025-02-26 17:16:02.584,129856,28382,30984,1,296713,324250
2025-02-26 17:16:02.587,129882,28393,30998,0,296717,324310
2025-02-26 17:16:02.590,129921,28399,31019,7,296758,324302
2025-02-26 17:16:02.592,129930,28420,31026,5,296757,324317
2025-02-26 17:16:02.596,129935,28412,31032,0,296758,324332
2025-02-26 17:16:02.599,129909,28418,31045,1,296731,324316
2025-02-26 17:16:02.822,129919,28436,31050,3,296722,324311
2025-02-26 17:16:02.826,129904,28411,31031,1,296562,324234
2025-02-26 17:16:02.828,129826,28359,31000,4,296386,324116
2025-02-26 17:16:02.831,129778,28360,31002,3,296319,323828
2025-02-26 17:16:02.834,129786,28380,31020,0,296330,323749
2025-02-26 17:16:02.837,129784,28369,31025,7,296388,323787
2025-02-26 17:16:02.840,129794,28381,31037,3,296430,323827
2025-02-26 17:16:02.843,129791,28379,31044,0,296529,323903
2025-02-26 17:16:02.847,129811,28381,31037,5,296624,323963
2025-02-26 17:16:02.850,129811,28380,31038,9,296708,324050
2025-02-26 17:16:02.854,129806,28364,31026,6,296803,324102
2025-02-26 17:16:02.857,129823,28370,31030,11,296911,324185
2025-02-26 17:16:02.860,129824,28364,31016,4,296977,324294
2025-02-26 17:16:02.864,129846,28364,31029,3,297081,324349
2025-02-26 17:16:02.867,129858,28350,31031,19,297210,324480
2025-02-26 17:16:02.870,129855,28354,31050,2,297322,324588
2025-02-26 17:16:03.078,129896,28352,31041,10,297447,324676
2025-02-26 17:16:03.080,129943,28366,31064,8,297563,324826
2025-02-26 17:16:03.083,129972,28371,31095,4,297714,324954
2025-02-26 17:16:03.085,130007,28403,31119,4,297891,325134
2025-02-26 17:16:03.087,130069,28414,31160,1,298035,325266
2025-02-26 17:16:03.091,130107,28462,31194,1,298163,325463
2025-02-26 17:16:03.094,130121,28454,31227,1,298301,325519
2025-02-26 17:16:03.096,130164,28477,31239,0,298365,325635
2025-02-26 17:16:03.099,130199,28496,31266,0,298471,325777
2025-02-26 17:16:03.101,130251,28507,31311,2,298614,325868
2025-02-26 17:16:03.103,130265,28519,31319,7,298562,325984
2025-02-26 17:16:03.106,130261,28515,31315,4,298551,325906
2025-02-26 17:16:03.108,130242,28514,31321,1,298455,325858
2025-02-26 17:16:03.111,130223,28504,31312,1,298386,325832
2025-02-26 17:16:03.114,130207,28487,31308,10,298305,325714
2025-02-26 17:16:03.117,130153,28465,31274,6,298102,325617
2025-02-26 17:16:03.119,130109,28417,31234,3,297901,325401
2025-02-26 17:16:03.121,130057,28389,31184,11,297740,325216
2025-02-26 17:16:03.124,130005,28354,31165,9,297617,325036
2025-02-26 17:16:03.127,129974,28333,31131,14,297496,324918
2025-02-26 17:16:03.356,129943,28305,31104,6,297375,324751
2025-02-26 17:16:03.358,129908,28275,31069,0,297248,324671
2025-02-26 17:16:03.361,129863,28244,31033,6,297139,324549
2025-02-26 17:16:03.363,129781,28186,30977,0,296941,324349
2025-02-26 17:16:03.365,129761,28137,30918,0,296875,324210
2025-02-26 17:16:03.367,129707,28093,30864,0,296749,324163
2025-02-26 17:16:03.370,129665,28044,30813,0,296654,324064
2025-02-26 17:16:03.372,129631,28020,30779,1,296514,323876
2025-02-26 17:16:03.374,129609,27978,30746,1,296421,323699
2025-02-26 17:16:03.376,129588,27959,30747,3,296298,323593
2025-02-26 17:16:03.379,129582,27952,30738,9,296249,323488
2025-02-26 17:16:03.382,129598,27964,30742,4,296239,323485
2025-02-26 17:16:03.384,129613,27972,30756,5,296306,323458
2025-02-26 17:16:03.388,129653,27982,30768,9,296366,323555
2025-02-26 17:16:03.391,129670,27999,30794,2,296500,323645
2025-02-26 17:16:03.394,129702,28020,30828,0,296575,323678
2025-02-26 17:16:03.397,129744,28058,30865,0,296740,323818
2025-02-26 17:16:03.400,129786,28076,30913,12,296881,323955
2025-02-26 17:16:03.403,129839,28116,30943,5,297037,324173
2025-02-26 17:16:03.593,129869,28144,30980,18,297138,324275
2025-02-26 17:16:03.595,129904,28175,31001,19,297259,324406
2025-02-26 17:16:03.597,129947,28192,31033,10,297410,324519
2025-02-26 17:16:03.600,129970,28218,31065,6,297537,324594
2025-02-26 17:16:03.602,129997,28235,31087,4,297592,324682
2025-02-26 17:16:03.604,129997,28235,31087,4,297592,324682
2025-02-26 17:16:03.606,130053,28274,31132,3,297805,324844
2025-02-26 17:16:03.608,130065,28286,31145,4,297825,324905
2025-02-26 17:16:03.610,130089,28285,31154,3,297760,324859
2025-02-26 17:16:03.612,130082,28274,31139,8,297707,324809
2025-02-26 17:16:03.614,130072,28257,31121,0,297635,324717
2025-02-26 17:16:03.616,130043,28201,31082,0,297526,324614
2025-02-26 17:16:03.618,129977,28162,31033,1,297372,324494
2025-02-26 17:16:03.621,129917,28107,30982,0,297126,324290
2025-02-26 17:16:03.623,129833,28067,30915,0,296929,324093
2025-02-26 17:16:03.626,129768,28019,30877,0,296742,323872
2025-02-26 17:16:03.628,129722,27983,30820,0,296528,323688
2025-02-26 17:16:03.631,129646,27916,30765,4,296300,323461
2025-02-26 17:16:03.634,129574,27888,30712,0,296192,323254
2025-02-26 17:16:03.638,129532,27856,30675,1,296037,323068
2025-02-26 17:16:03.640,129511,27837,30651,5,295964,322981
2025-02-26 17:16:03.907,129512,27818,30635,13,295995,322915
2025-02-26 17:16:03.910,129521,27815,30621,9,296038,322940
2025-02-26 17:16:03.912,129542,27815,30623,8,296115,322959
2025-02-26 17:16:03.914,129565,27817,30625,0,296163,323077
2025-02-26 17:16:03.916,129590,27823,30623,1,296234,323095
2025-02-26 17:16:03.919,129599,27826,30626,5,296313,323153
2025-02-26 17:16:03.921,129646,27838,30637,5,296474,323278
2025-02-26 17:16:03.923,129707,27863,30666,9,296632,323368
2025-02-26 17:16:03.925,129751,27883,30692,2,296801,323585
2025-02-26 17:16:03.927,129793,27903,30718,10,296915,323706
2025-02-26 17:16:03.929,129801,27915,30724,2,296975,323819
2025-02-26 17:16:03.931,129808,27914,30730,0,297052,323876
2025-02-26 17:16:03.933,129821,27899,30720,10,297004,323921
2025-02-26 17:16:03.935,129823,27884,30707,8,296987,323895
2025-02-26 17:16:03.937,129815,27879,30693,2,296987,323874
2025-02-26 17:16:03.940,129782,27862,30691,4,296956,323836
2025-02-26 17:16:03.943,129789,27839,30681,6,296874,323767
2025-02-26 17:16:03.945,129753,27834,30664,5,296791,323747
2025-02-26 17:16:03.947,129720,27810,30651,4,296785,323642
2025-02-26 17:16:03.951,129712,27791,30633,5,296696,323578
2025-02-26 17:16:03.954,129695,27797,30634,6,296625,323482
2025-02-26 17:16:03.956,129691,27789,30616,0,296549,323444
2025-02-26 17:16:04.145,129673,27765,30603,5,296544,323364
2025-02-26 17:16:04.148,129643,27757,30580,8,296461,323375
2025-02-26 17:16:04.151,129631,27736,30554,0,296345,323251
2025-02-26 17:16:04.153,129605,27715,30532,7,296382,323184
2025-02-26 17:16:04.155,129597,27710,30531,7,296371,323179
2025-02-26 17:16:04.157,129579,27712,30523,4,296384,323156
2025-02-26 17:16:04.160,129576,27704,30517,10,296447,323189
2025-02-26 17:16:04.162,129588,27703,30508,7,296414,323217
2025-02-26 17:16:04.164,129582,27695,30499,0,296446,323203
2025-02-26 17:16:04.166,129575,27676,30476,3,296406,323261
2025-02-26 17:16:04.169,129565,27661,30467,4,296452,323231
2025-02-26 17:16:04.171,129546,27659,30456,1,296434,323220
2025-02-26 17:16:04.173,129529,27635,30436,0,296445,323210
2025-02-26 17:16:04.175,129511,27627,30421,4,296446,323220
2025-02-26 17:16:04.177,129490,27608,30394,0,296393,323208
2025-02-26 17:16:04.179,129472,27590,30375,11,296339,323212
2025-02-26 17:16:04.181,129456,27561,30348,0,296279,323123
2025-02-26 17:16:04.184,129430,27540,30322,1,296207,323030
2025-02-26 17:16:04.188,129388,27511,30302,0,296157,322948
2025-02-26 17:16:04.192,129337,27494,30275,0,296087,322852
2025-02-26 17:16:04.402,129314,27480,30254,1,296040,322790
2025-02-26 17:16:04.404,129286,27459,30238,4,295990,322709
2025-02-26 17:16:04.407,129274,27443,30220,4,295944,322629
2025-02-26 17:16:04.410,129275,27436,30208,6,295908,322577
2025-02-26 17:16:04.412,129249,27419,30203,1,295888,322518
2025-02-26 17:16:04.414,129264,27406,30182,6,295846,322499
2025-02-26 17:16:04.417,129229,27395,30173,5,295762,322402
2025-02-26 17:16:04.419,129217,27378,30162,2,295689,322340
2025-02-26 17:16:04.421,129193,27359,30140,6,295676,322232
2025-02-26 17:16:04.423,129182,27334,30126,5,295625,322177
2025-02-26 17:16:04.425,129168,27317,30112,0,295585,322176
2025-02-26 17:16:04.427,129167,27322,30109,11,295619,322155
2025-02-26 17:16:04.431,129163,27316,30108,1,295669,322150
2025-02-26 17:16:04.433,129173,27331,30126,1,295710,322152
2025-02-26 17:16:04.436,129195,27340,30141,1,295758,322249
2025-02-26 17:16:04.440,129209,27346,30141,0,295723,322286
2025-02-26 17:16:04.443,129191,27348,30152,8,295727,322296
2025-02-26 17:16:04.446,129204,27355,30153,0,295700,322285
2025-02-26 17:16:04.449,129186,27353,30153,2,295742,322312
2025-02-26 17:16:04.647,129171,27354,30155,0,295743,322340
2025-02-26 17:16:04.649,129167,27346,30150,3,295821,322315
2025-02-26 17:16:04.652,129138,27348,30140,0,295808,322393
2025-02-26 17:16:04.654,129104,27338,30123,3,295896,322386
2025-02-26 17:16:04.657,129104,27338,30123,3,295896,322386
2025-02-26 17:16:04.659,129062,27327,30100,9,295960,322463
2025-02-26 17:16:04.661,129060,27315,30084,3,295948,322479
2025-02-26 17:16:04.664,129030,27306,30085,8,295987,322442
2025-02-26 17:16:04.666,129016,27311,30072,6,295960,322457
2025-02-26 17:16:04.668,128985,27297,30075,2,296008,322488
2025-02-26 17:16:04.670,128979,27292,30062,6,296044,322511
2025-02-26 17:16:04.672,128953,27295,30084,8,296071,322516
2025-02-26 17:16:04.674,128932,27296,30076,6,296058,322553
2025-02-26 17:16:04.676,128913,27312,30079,8,296038,322562
2025-02-26 17:16:04.678,128935,27321,30105,0,296097,322567
2025-02-26 17:16:04.681,128939,27336,30135,5,296049,322586
2025-02-26 17:16:04.683,128921,27349,30150,5,296055,322522
2025-02-26 17:16:04.686,128935,27374,30175,1,296040,322534
2025-02-26 17:16:04.692,128937,27383,30194,3,295963,322529
2025-02-26 17:16:04.695,128927,27401,30230,0,295899,322488
2025-02-26 17:16:04.917,128913,27412,30246,2,295808,322413
2025-02-26 17:16:04.919,128903,27397,30234,4,295619,322283
2025-02-26 17:16:04.921,128879,27417,30245,0,295406,322098
2025-02-26 17:16:04.923,128851,27409,30260,8,295193,321878
2025-02-26 17:16:04.925,128837,27418,30273,4,295022,321681
2025-02-26 17:16:04.933,128844,27427,30278,5,294887,321499
2025-02-26 17:16:04.935,128846,27430,30295,2,294819,321375
2025-02-26 17:16:04.938,128872,27444,30321,6,294732,321293
2025-02-26 17:16:04.940,128871,27467,30337,3,294676,321232
2025-02-26 17:16:04.944,128895,27486,30353,5,294649,321172
2025-02-26 17:16:04.946,128897,27504,30374,10,294621,321208
2025-02-26 17:16:04.949,128920,27515,30393,3,294674,321170
2025-02-26 17:16:04.952,128909,27532,30392,2,294688,321185
2025-02-26 17:16:04.955,128936,27533,30402,3,294732,321257
2025-02-26 17:16:04.958,128933,27546,30402,0,294792,321251
2025-02-26 17:16:04.961,128920,27537,30390,11,294795,321279
2025-02-26 17:16:04.964,128901,27543,30383,0,294828,321285
2025-02-26 17:16:05.073,128906,27551,30390,4,294937,321301
2025-02-26 17:16:05.076,128914,27556,30400,4,295032,321345
2025-02-26 17:16:05.079,128909,27563,30397,0,294997,321418
2025-02-26 17:16:05.082,128888,27541,30370,2,294937,321442
2025-02-26 17:16:05.085,128865,27506,30333,1,294801,321326
2025-02-26 17:16:05.089,128784,27447,30272,5,294631,321194
2025-02-26 17:16:05.092,128712,27400,30200,0,294462,320999
2025-02-26 17:16:05.095,128659,27370,30162,5,294452,320765
2025-02-26 17:16:05.097,128648,27343,30136,4,294450,320751
2025-02-26 17:16:05.100,128669,27364,30156,0,294587,320859
2025-02-26 17:16:05.103,128750,27394,30172,7,294837,321012
2025-02-26 17:16:05.107,128820,27416,30198,6,295009,321299
2025-02-26 17:16:05.109,128870,27433,30227,0,295108,321438
2025-02-26 17:16:05.112,128905,27440,30232,1,295224,321542
2025-02-26 17:16:05.114,128919,27440,30238,10,295241,321643
2025-02-26 17:16:05.117,128915,27425,30220,0,295219,321669
2025-02-26 17:16:05.119,128876,27408,30202,2,295109,321649
2025-02-26 17:16:05.344,128806,27369,30168,3,294966,321562
2025-02-26 17:16:05.346,128681,27313,30122,2,294728,321382
2025-02-26 17:16:05.349,128622,27310,30118,2,294664,321108
2025-02-26 17:16:05.351,128627,27319,30132,6,294747,321080
2025-02-26 17:16:05.353,128625,27325,30148,2,294677,321174
2025-02-26 17:16:05.355,128680,27360,30190,5,294889,321053
2025-02-26 17:16:05.358,128809,27427,30270,5,295337,321368
2025-02-26 17:16:05.360,128923,27477,30331,8,295696,321817
2025-02-26 17:16:05.362,128957,27502,30375,0,295854,322255
2025-02-26 17:16:05.364,128869,27506,30416,10,295846,322437
2025-02-26 17:16:05.366,128792,27539,30449,8,295971,322435
2025-02-26 17:16:05.368,128730,27570,30484,12,296257,322605
2025-02-26 17:16:05.370,128666,27617,30515,7,296558,322808
2025-02-26 17:16:05.372,128636,27642,30555,0,296800,323083
2025-02-26 17:16:05.374,128663,27657,30580,0,296990,323350
2025-02-26 17:16:05.377,128683,27660,30600,4,297119,323526
2025-02-26 17:16:05.379,128731,27680,30607,3,297232,323748
2025-02-26 17:16:05.382,128794,27682,30634,3,297428,323849
2025-02-26 17:16:05.386,128787,27702,30612,5,297478,324087
2025-02-26 17:16:05.389,128752,27667,30598,0,297424,324162
2025-02-26 17:16:05.392,128724,27692,30594,16,297557,324119
2025-02-26 17:16:05.573,128734,27712,30605,0,297671,324194
2025-02-26 17:16:05.577,128760,27727,30633,5,297761,324330
2025-02-26 17:16:05.580,128789,27735,30643,1,297810,324414
2025-02-26 17:16:05.583,128838,27756,30650,12,297885,324474
2025-02-26 17:16:05.586,128875,27739,30617,3,297837,324560
2025-02-26 17:16:05.589,128876,27707,30573,0,297712,324544
2025-02-26 17:16:05.592,128845,27644,30492,0,297489,324425
2025-02-26 17:16:05.595,128787,27588,30405,10,297242,324169
2025-02-26 17:16:05.598,128739,27538,30335,9,297021,323946
2025-02-26 17:16:05.601,128692,27498,30266,0,296850,323678
2025-02-26 17:16:05.604,128627,27447,30192,1,296608,323482
2025-02-26 17:16:05.606,128583,27416,30153,5,296529,323315
2025-02-26 17:16:05.609,128575,27408,30120,3,296474,323228
2025-02-26 17:16:05.611,128574,27411,30101,0,296480,323236
2025-02-26 17:16:05.614,128615,27400,30100,6,296511,323248
2025-02-26 17:16:05.616,128640,27434,30117,5,296497,323321
2025-02-26 17:16:05.619,128652,27429,30126,12,296524,323282
2025-02-26 17:16:05.622,128684,27455,30157,5,296578,323317
2025-02-26 17:16:05.833,128707,27493,30173,0,296645,323289
2025-02-26 17:16:05.835,128717,27503,30197,0,296712,323414
2025-02-26 17:16:05.838,128735,27506,30204,7,296767,323433
2025-02-26 17:16:05.840,128739,27507,30211,9,296826,323484
2025-02-26 17:16:05.842,128753,27507,30200,14,296879,323460
2025-02-26 17:16:05.845,128767,27520,30204,4,296921,323528
2025-02-26 17:16:05.847,128771,27504,30193,3,296957,323563
2025-02-26 17:16:05.849,128805,27511,30195,0,297018,323590
2025-02-26 17:16:05.851,128833,27522,30198,4,297062,323677
2025-02-26 17:16:05.853,128855,27518,30198,4,297090,323697
2025-02-26 17:16:05.855,128853,27513,30190,6,297018,323710
2025-02-26 17:16:05.857,128886,27524,30199,0,297058,323686
2025-02-26 17:16:05.859,128886,27524,30199,0,297058,323686
2025-02-26 17:16:05.861,128878,27527,30208,0,297052,323739
2025-02-26 17:16:05.863,128905,27521,30204,1,297015,323691
2025-02-26 17:16:05.865,128919,27523,30209,8,296975,323673
2025-02-26 17:16:05.868,128920,27520,30199,0,296933,323681
2025-02-26 17:16:05.871,128943,27528,30211,4,296857,323576
2025-02-26 17:16:05.873,128949,27525,30211,6,296778,323532
2025-02-26 17:16:05.876,128948,27509,30199,5,296655,323426
2025-02-26 17:16:05.878,128954,27511,30192,0,296547,323326
2025-02-26 17:16:05.880,128934,27505,30182,12,296311,323186
2025-02-26 17:16:06.060,128940,27495,30170,8,296137,323013
2025-02-26 17:16:06.062,128936,27495,30151,4,295927,322797
2025-02-26 17:16:06.066,128928,27475,30134,4,295601,322541
2025-02-26 17:16:06.068,128877,27431,30058,4,295380,322236
2025-02-26 17:16:06.071,128824,27392,30005,3,295203,321997
2025-02-26 17:16:06.073,128754,27355,29951,6,295073,321827
2025-02-26 17:16:06.076,128707,27338,29922,2,294989,321702
2025-02-26 17:16:06.078,128688,27329,29901,8,294961,321657
2025-02-26 17:16:06.081,128631,27312,29880,3,294945,321645
2025-02-26 17:16:06.083,128630,27297,29845,9,294934,321612
2025-02-26 17:16:06.087,128611,27293,29835,6,294905,321565
2025-02-26 17:16:06.089,128621,27280,29830,2,294882,321571
2025-02-26 17:16:06.092,128609,27280,29815,5,294868,321567
2025-02-26 17:16:06.095,128610,27284,29824,6,294936,321530
2025-02-26 17:16:06.097,128629,27288,29824,5,294953,321616
2025-02-26 17:16:06.099,128625,27290,29815,0,295013,321653
2025-02-26 17:16:06.102,128635,27294,29831,6,295003,321675
2025-02-26 17:16:06.105,128630,27301,29841,4,294989,321698
2025-02-26 17:16:06.108,128667,27325,29870,0,295023,321749
2025-02-26 17:16:06.326,128668,27331,29890,2,295088,321754
2025-02-26 17:16:06.328,128687,27347,29912,0,295128,321813
2025-02-26 17:16:06.331,128698,27374,29933,11,295197,321880
2025-02-26 17:16:06.334,128700,27399,29962,8,295174,321923
2025-02-26 17:16:06.336,128688,27417,29979,0,295213,321947
2025-02-26 17:16:06.339,128670,27439,30005,1,295310,321982
2025-02-26 17:16:06.341,128681,27470,30019,5,295385,322074
2025-02-26 17:16:06.344,128702,27483,30042,7,295508,322135
2025-02-26 17:16:06.347,128718,27520,30066,8,295616,322238
2025-02-26 17:16:06.350,128745,27557,30103,0,295712,322292
2025-02-26 17:16:06.353,128770,27585,30140,10,295804,322502
2025-02-26 17:16:06.356,128774,27609,30156,6,295911,322574
2025-02-26 17:16:06.359,128794,27624,30178,8,295993,322645
2025-02-26 17:16:06.361,128798,27640,30200,8,296069,322758
2025-02-26 17:16:06.364,128800,27661,30214,8,296233,322840
2025-02-26 17:16:06.366,128817,27688,30240,6,296276,322917
2025-02-26 17:16:06.368,128824,27705,30245,11,296337,322965
2025-02-26 17:16:06.372,128825,27712,30276,0,296403,322989
2025-02-26 17:16:06.551,128828,27733,30292,15,296394,323017
2025-02-26 17:16:06.553,128860,27742,30279,2,296524,323055
2025-02-26 17:16:06.556,128843,27759,30289,6,296621,323111
2025-02-26 17:16:06.558,128851,27755,30306,2,296675,323189
2025-02-26 17:16:06.560,128871,27752,30287,8,296698,323293
2025-02-26 17:16:06.563,128875,27754,30271,2,296635,323316
2025-02-26 17:16:06.565,128819,27725,30232,13,296434,323260
2025-02-26 17:16:06.567,128758,27696,30188,2,296243,323069
2025-02-26 17:16:06.570,128745,27670,30166,2,296260,322868
2025-02-26 17:16:06.572,128745,27690,30158,6,296309,322908
2025-02-26 17:16:06.574,128758,27682,30150,0,296358,322922
2025-02-26 17:16:06.577,128751,27687,30170,6,296384,323002
2025-02-26 17:16:06.579,128779,27687,30195,5,296389,323020
2025-02-26 17:16:06.581,128773,27670,30168,6,296295,323050
2025-02-26 17:16:06.584,128773,27690,30180,5,296334,322970
2025-02-26 17:16:06.586,128805,27712,30197,3,296353,323006
2025-02-26 17:16:06.590,128826,27726,30224,5,296467,323004
2025-02-26 17:16:06.594,128856,27739,30258,5,296631,323106
2025-02-26 17:16:06.597,128912,27776,30295,4,296794,323304
2025-02-26 17:16:06.599,128951,27796,30316,7,296840,323457
2025-02-26 17:16:06.821,128964,27814,30338,8,296899,323503
2025-02-26 17:16:06.824,128986,27849,30374,2,296957,323538
2025-02-26 17:16:06.827,129016,27870,30394,3,297023,323612
2025-02-26 17:16:06.830,129043,27877,30414,3,297047,323677
2025-02-26 17:16:06.833,129046,27901,30443,5,297154,323783
2025-02-26 17:16:06.835,129066,27914,30453,1,297162,323831
2025-02-26 17:16:06.838,129042,27918,30471,0,297160,323789
2025-02-26 17:16:06.841,129061,27927,30487,1,297120,323795
2025-02-26 17:16:06.845,129061,27957,30514,1,297087,323745
2025-02-26 17:16:06.847,129044,27964,30532,0,297030,323719
2025-02-26 17:16:06.849,129050,27979,30548,4,297072,323742
2025-02-26 17:16:06.852,129054,28008,30558,6,297100,323724
2025-02-26 17:16:06.855,129068,28025,30577,0,297080,323789
2025-02-26 17:16:06.858,129051,28039,30595,4,297179,323796
2025-02-26 17:16:06.861,129066,28061,30607,7,297195,323836
2025-02-26 17:16:06.864,129089,28087,30626,2,297244,323911
2025-02-26 17:16:06.866,129110,28098,30643,1,297232,323967
2025-02-26 17:16:06.870,129119,28121,30648,0,297177,323947
2025-02-26 17:16:07.074,129119,28138,30661,0,297219,323884
2025-02-26 17:16:07.076,129117,28151,30688,5,297213,323896
2025-02-26 17:16:07.079,129137,28163,30690,5,297293,323946
2025-02-26 17:16:07.081,129157,28175,30693,10,297425,324047
2025-02-26 17:16:07.084,129188,28197,30728,0,297541,324127
2025-02-26 17:16:07.087,129197,28224,30749,10,297599,324274
2025-02-26 17:16:07.090,129236,28243,30775,4,297669,324361
2025-02-26 17:16:07.093,129258,28275,30788,4,297711,324420
2025-02-26 17:16:07.096,129272,28277,30814,3,297737,324452
2025-02-26 17:16:07.099,129298,28302,30838,13,297827,324503
2025-02-26 17:16:07.101,129321,28328,30856,0,297950,324552
2025-02-26 17:16:07.103,129313,28344,30863,2,298004,324655
2025-02-26 17:16:07.105,129318,28346,30870,7,298079,324782
2025-02-26 17:16:07.108,129283,28351,30854,4,298100,324820
2025-02-26 17:16:07.111,129270,28344,30851,3,298024,324803
2025-02-26 17:16:07.114,129240,28338,30841,1,297958,324729
2025-02-26 17:16:07.116,129240,28338,30841,1,297958,324729
2025-02-26 17:16:07.120,129214,28328,30832,0,297928,324596
2025-02-26 17:16:07.123,129222,28331,30828,4,297966,324569
2025-02-26 17:16:07.388,129218,28342,30833,1,298069,324641
2025-02-26 17:16:07.392,129264,28366,30849,7,298184,324720
2025-02-26 17:16:07.395,129296,28379,30877,1,298292,324847
2025-02-26 17:16:07.400,129327,28389,30890,2,298382,324975
2025-02-26 17:16:07.403,129344,28395,30900,5,298363,325052
2025-02-26 17:16:07.407,129362,28405,30905,0,298401,325045
2025-02-26 17:16:07.410,129361,28403,30911,0,298432,325087
2025-02-26 17:16:07.414,129391,28424,30921,0,298494,325125
2025-02-26 17:16:07.417,129407,28430,30934,9,298585,325133
2025-02-26 17:16:07.421,129422,28440,30951,10,298583,325212
2025-02-26 17:16:07.424,129451,28463,30973,3,298687,325280
2025-02-26 17:16:07.427,129461,28463,30981,0,298674,325341
2025-02-26 17:16:07.431,129451,28469,30993,0,298639,325355
2025-02-26 17:16:07.434,129453,28471,30993,4,298617,325345
2025-02-26 17:16:07.710,129433,28476,30996,2,298605,325306
2025-02-26 17:16:07.713,129433,28480,30999,7,298570,325278
2025-02-26 17:16:07.715,129435,28481,30996,4,298569,325273
2025-02-26 17:16:07.717,129407,28484,30996,2,298536,325263
2025-02-26 17:16:07.720,129393,28481,30997,2,298507,325255
2025-02-26 17:16:07.723,129407,28481,30989,2,298484,325210
2025-02-26 17:16:07.725,129413,28500,30997,4,298507,325180
2025-02-26 17:16:07.729,129415,28498,31002,7,298513,325223
2025-02-26 17:16:07.732,129424,28507,31007,11,298525,325245
2025-02-26 17:16:07.734,129440,28514,31010,4,298598,325265
2025-02-26 17:16:07.736,129467,28515,31016,3,298649,325317
2025-02-26 17:16:07.738,129460,28523,31027,8,298660,325375
2025-02-26 17:16:07.740,129467,28532,31030,6,298641,325399
2025-02-26 17:16:07.743,129473,28536,31041,11,298675,325410
2025-02-26 17:16:07.745,129484,28540,31041,3,298686,325396
2025-02-26 17:16:07.748,129491,28554,31054,6,298704,325425
2025-02-26 17:16:07.750,129484,28559,31048,5,298678,325432
2025-02-26 17:16:07.753,129518,28550,31061,5,298693,325432
2025-02-26 17:16:07.756,129523,28570,31062,5,298674,325469
2025-02-26 17:16:07.759,129505,28572,31069,2,298692,325460
2025-02-26 17:16:07.966,129489,28568,31069,4,298645,325420
2025-02-26 17:16:07.968,129506,28580,31077,4,298618,325375
2025-02-26 17:16:07.971,129491,28589,31097,1,298591,325377
2025-02-26 17:16:07.973,129489,28582,31083,3,298582,325395
2025-02-26 17:16:07.976,129490,28600,31089,5,298495,325342
2025-02-26 17:16:07.979,129483,28599,31088,3,298475,325310
2025-02-26 17:16:07.981,129495,28598,31098,3,298426,325275
2025-02-26 17:16:07.984,129486,28611,31098,2,298424,325258
2025-02-26 17:16:07.987,129499,28617,31109,1,298454,325255
2025-02-26 17:16:07.989,129509,28619,31127,5,298511,325255
2025-02-26 17:16:07.992,129543,28642,31127,10,298567,325303
2025-02-26 17:16:07.995,129539,28642,31131,3,298599,325354
2025-02-26 17:16:07.998,129520,28652,31156,5,298607,325354
2025-02-26 17:16:08.000,129543,28648,31149,3,298470,325385
2025-02-26 17:16:08.003,129509,28654,31142,7,298455,325283
2025-02-26 17:16:08.005,129489,28643,31132,5,298486,325218
2025-02-26 17:16:08.007,129467,28635,31130,4,298393,325202
2025-02-26 17:16:08.010,129462,28636,31115,2,298359,325128
2025-02-26 17:16:08.014,129439,28617,31101,7,298288,325061
2025-02-26 17:16:08.199,129423,28621,31092,1,298156,324925
2025-02-26 17:16:08.201,129403,28597,31074,7,298095,324819
2025-02-26 17:16:08.204,129404,28601,31061,8,298071,324762
2025-02-26 17:16:08.206,129395,28603,31061,7,298104,324753
2025-02-26 17:16:08.208,129389,28594,31044,6,298039,324723
2025-02-26 17:16:08.211,129399,28585,31029,4,298049,324739
2025-02-26 17:16:08.213,129396,28590,31037,6,298055,324689
2025-02-26 17:16:08.216,129424,28577,31036,4,297999,324717
2025-02-26 17:16:08.218,129401,28572,31037,9,297991,324697
2025-02-26 17:16:08.220,129419,28577,31034,10,297998,324695
2025-02-26 17:16:08.222,129425,28572,31038,1,298036,324682
2025-02-26 17:16:08.225,129436,28586,31050,10,298064,324755
2025-02-26 17:16:08.227,129454,28584,31054,6,298087,324772
2025-02-26 17:16:08.229,129453,28607,31055,0,298060,324797
2025-02-26 17:16:08.231,129441,28592,31047,6,298019,324761
2025-02-26 17:16:08.233,129446,28586,31046,6,297962,324721
2025-02-26 17:16:08.237,129430,28581,31048,3,298060,324710
2025-02-26 17:16:08.240,129443,28599,31063,5,298074,324698
2025-02-26 17:16:08.245,129458,28617,31069,5,298079,324737
2025-02-26 17:16:08.247,129456,28613,31082,5,298115,324858
2025-02-26 17:16:08.465,129467,28624,31096,4,298150,324869
2025-02-26 17:16:08.467,129483,28639,31103,5,298155,324908
2025-02-26 17:16:08.470,129485,28638,31106,2,298111,324880
2025-02-26 17:16:08.473,129477,28650,31124,2,298163,324854
2025-02-26 17:16:08.475,129492,28651,31123,3,298129,324864
2025-02-26 17:16:08.477,129497,28661,31131,0,298117,324879
2025-02-26 17:16:08.480,129473,28648,31117,1,298070,324877
2025-02-26 17:16:08.482,129471,28651,31112,0,298031,324795
2025-02-26 17:16:08.484,129471,28639,31106,4,297998,324734
2025-02-26 17:16:08.487,129452,28663,31120,14,298005,324732
2025-02-26 17:16:08.490,129475,28656,31105,3,297967,324720
2025-02-26 17:16:08.493,129461,28665,31110,6,297910,324718
2025-02-26 17:16:08.496,129462,28649,31103,3,297905,324712
2025-02-26 17:16:08.498,129481,28650,31101,8,297842,324608
2025-02-26 17:16:08.501,129458,28646,31114,5,297759,324559
2025-02-26 17:16:08.504,129456,28653,31096,5,297753,324520
2025-02-26 17:16:08.507,129458,28640,31103,7,297728,324488
2025-02-26 17:16:08.509,129464,28637,31105,6,297725,324506
2025-02-26 17:16:08.514,129446,28635,31098,3,297695,324460
2025-02-26 17:16:08.709,129443,28658,31108,7,297688,324452
2025-02-26 17:16:08.712,129447,28641,31093,8,297727,324453
2025-02-26 17:16:08.714,129439,28648,31088,4,297746,324495
2025-02-26 17:16:08.717,129433,28637,31079,3,297765,324483
2025-02-26 17:16:08.719,129438,28635,31069,8,297827,324529
2025-02-26 17:16:08.722,129440,28640,31075,10,297931,324632
2025-02-26 17:16:08.724,129440,28640,31075,10,297931,324632
2025-02-26 17:16:08.726,129478,28674,31118,7,298188,324857
2025-02-26 17:16:08.728,129512,28690,31140,10,298323,325025
2025-02-26 17:16:08.730,129527,28703,31159,2,298439,325195
2025-02-26 17:16:08.732,129557,28713,31165,8,298434,325243
2025-02-26 17:16:08.734,129531,28720,31159,4,298435,325254
2025-02-26 17:16:08.737,129526,28716,31153,9,298443,325224
2025-02-26 17:16:08.740,129496,28704,31139,8,298420,325210
2025-02-26 17:16:08.742,129480,28710,31135,0,298426,325169
2025-02-26 17:16:08.745,129474,28699,31132,3,298438,325170
2025-02-26 17:16:08.747,129457,28695,31137,3,298412,325160
2025-02-26 17:16:08.750,129448,28699,31125,0,298337,325112
2025-02-26 17:16:08.753,129450,28688,31134,5,298269,325047
2025-02-26 17:16:08.756,129444,28689,31119,7,298235,324999
2025-02-26 17:16:08.758,129418,28682,31118,14,298218,324942
2025-02-26 17:16:08.975,129424,28692,31113,13,298217,324888
2025-02-26 17:16:08.978,129420,28687,31111,9,298285,324950
2025-02-26 17:16:08.980,129427,28683,31107,0,298266,324957
2025-02-26 17:16:08.982,129455,28701,31127,3,298328,325015
2025-02-26 17:16:08.984,129475,28703,31142,0,298365,325063
2025-02-26 17:16:08.987,129482,28716,31144,0,298331,325091
2025-02-26 17:16:08.990,129505,28712,31152,3,298289,325082
2025-02-26 17:16:08.993,129477,28717,31152,4,298241,325030
2025-02-26 17:16:08.995,129457,28721,31145,3,298145,324989
2025-02-26 17:16:08.997,129470,28705,31147,9,298119,324932
2025-02-26 17:16:09.000,129454,28712,31150,10,298070,324898
2025-02-26 17:16:09.002,129456,28710,31147,0,298028,324869
2025-02-26 17:16:09.004,129467,28714,31156,4,297992,324815
2025-02-26 17:16:09.006,129454,28722,31164,1,297854,324734
2025-02-26 17:16:09.010,129443,28707,31146,8,297666,324604
2025-02-26 17:16:09.012,129461,28733,31190,5,297642,324444
2025-02-26 17:16:09.015,129402,28690,31148,8,297340,324378
2025-02-26 17:16:09.017,129332,28664,31115,10,297090,324019
2025-02-26 17:16:09.020,129358,28697,31121,8,296979,323812
2025-02-26 17:16:09.023,129339,28693,31135,4,296774,323687
2025-02-26 17:16:09.216,129347,28676,31131,2,296365,323474
2025-02-26 17:16:09.219,129215,28630,31080,0,295863,323059
2025-02-26 17:16:09.221,129210,28620,31099,0,295618,322539
2025-02-26 17:16:09.223,129187,28623,31073,3,295324,322292
2025-02-26 17:16:09.226,129037,28529,30976,11,295163,321997
2025-02-26 17:16:09.228,129055,28563,31003,8,295321,321871
2025-02-26 17:16:09.231,129086,28587,31022,2,295480,322069
2025-02-26 17:16:09.233,129105,28610,31049,4,295613,322181
2025-02-26 17:16:09.236,129151,28633,31079,2,295681,322301
2025-02-26 17:16:09.239,129166,28637,31073,8,295750,322405
2025-02-26 17:16:09.242,129192,28659,31083,8,295825,322461
2025-02-26 17:16:09.244,129229,28689,31118,9,296033,322577
2025-02-26 17:16:09.247,129249,28692,31132,13,296163,322756
2025-02-26 17:16:09.249,129262,28711,31148,6,296416,322918
2025-02-26 17:16:09.252,129302,28725,31168,2,296609,323161
2025-02-26 17:16:09.255,129324,28741,31176,3,296748,323379
2025-02-26 17:16:09.257,129349,28735,31174,3,296836,323505
2025-02-26 17:16:09.261,129379,28759,31197,10,296922,323575
2025-02-26 17:16:09.264,129395,28750,31202,3,296931,323684
2025-02-26 17:16:09.476,129411,28759,31200,7,296995,323719
2025-02-26 17:16:09.478,129396,28766,31202,1,297060,323778
2025-02-26 17:16:09.481,129375,28756,31195,5,297074,323860
2025-02-26 17:16:09.483,129365,28758,31209,15,297032,323857
2025-02-26 17:16:09.487,129361,28761,31205,2,297069,323897
2025-02-26 17:16:09.490,129347,28751,31197,1,297057,323869
2025-02-26 17:16:09.492,129315,28758,31191,3,296996,323857
2025-02-26 17:16:09.495,129298,28745,31158,0,296913,323757
2025-02-26 17:16:09.498,129260,28733,31153,6,296779,323673
2025-02-26 17:16:09.500,129217,28728,31146,8,296759,323556
2025-02-26 17:16:09.503,129223,28731,31133,0,296757,323493
2025-02-26 17:16:09.506,129232,28709,31128,4,296703,323424
2025-02-26 17:16:09.509,129216,28716,31124,0,296710,323424
2025-02-26 17:16:09.511,129213,28712,31127,7,296676,323367
2025-02-26 17:16:09.514,129213,28700,31115,13,296653,323316
2025-02-26 17:16:09.516,129204,28689,31112,0,296519,323310
2025-02-26 17:16:09.518,129189,28694,31093,3,296548,323257
2025-02-26 17:16:09.521,129203,28679,31089,5,296495,323151
2025-02-26 17:16:09.525,129183,28675,31068,11,296505,323160
2025-02-26 17:16:09.726,129200,28664,31074,3,296511,323141
2025-02-26 17:16:09.729,129217,28676,31083,0,296536,323213
2025-02-26 17:16:09.731,129238,28670,31077,1,296568,323204
2025-02-26 17:16:09.733,129241,28672,31078,8,296620,323279
2025-02-26 17:16:09.736,129243,28677,31081,0,296649,323279
2025-02-26 17:16:09.739,129266,28687,31099,9,296660,323381
2025-02-26 17:16:09.741,129268,28678,31085,2,296667,323398
2025-02-26 17:16:09.744,129253,28690,31099,1,296688,323417
2025-02-26 17:16:09.746,129239,28688,31098,0,296709,323453
2025-02-26 17:16:09.748,129248,28703,31106,0,296843,323518
2025-02-26 17:16:09.751,129252,28708,31107,3,296848,323573
2025-02-26 17:16:09.753,129275,28716,31117,4,296867,323615
2025-02-26 17:16:09.755,129263,28706,31112,12,296824,323614
2025-02-26 17:16:09.758,129267,28709,31126,7,296847,323569
2025-02-26 17:16:09.760,129262,28711,31117,4,296865,323605
2025-02-26 17:16:09.763,129260,28719,31114,8,296895,323572
2025-02-26 17:16:09.765,129261,28728,31131,9,296954,323703
2025-02-26 17:16:09.769,129284,28740,31146,12,297065,323749
2025-02-26 17:16:09.772,129303,28750,31161,7,297096,323848
2025-02-26 17:16:09.774,129290,28739,31147,4,297031,323868
2025-02-26 17:16:09.993,129278,28744,31150,4,297046,323836
2025-02-26 17:16:09.997,129290,28756,31155,0,297038,323835
2025-02-26 17:16:10.000,129288,28753,31155,0,297043,323833
2025-02-26 17:16:10.003,129306,28762,31160,0,297084,323851
2025-02-26 17:16:10.007,129308,28767,31171,5,297113,323886
2025-02-26 17:16:10.010,129316,28771,31175,6,297104,323876
2025-02-26 17:16:10.012,129302,28780,31176,5,297051,323879
2025-02-26 17:16:10.016,129295,28772,31174,5,297045,323877
2025-02-26 17:16:10.019,129295,28772,31174,5,297045,323877
2025-02-26 17:16:10.024,129303,28787,31188,3,297051,323830
2025-02-26 17:16:10.028,129314,28782,31188,0,297034,323912
2025-02-26 17:16:10.031,129308,28789,31180,0,297023,323838
2025-02-26 17:16:10.036,129305,28790,31190,1,296985,323816
2025-02-26 17:16:10.041,129312,28810,31206,0,297057,323849
2025-02-26 17:16:10.265,129354,28812,31212,2,296990,323890
2025-02-26 17:16:10.268,129302,28782,31188,10,297013,323880
2025-02-26 17:16:10.270,129357,28821,31231,8,297216,323867
2025-02-26 17:16:10.273,129381,28826,31243,9,297299,324073
2025-02-26 17:16:10.275,129401,28854,31259,2,297360,324135
2025-02-26 17:16:10.278,129436,28853,31274,2,297434,324218
2025-02-26 17:16:10.280,129484,28847,31256,8,297556,324289
2025-02-26 17:16:10.283,129512,28866,31280,2,297627,324340
2025-02-26 17:16:10.285,129520,28876,31296,7,297776,324531
2025-02-26 17:16:10.288,129552,28879,31313,1,297949,324589
2025-02-26 17:16:10.291,129583,28889,31310,0,298115,324754
2025-02-26 17:16:10.294,129617,28895,31324,2,298258,324897
2025-02-26 17:16:10.296,129655,28900,31324,8,298360,325055
2025-02-26 17:16:10.298,129649,28896,31343,11,298430,325167
2025-02-26 17:16:10.301,129688,28898,31323,6,298439,325160
2025-02-26 17:16:10.304,129698,28896,31347,5,298538,325229
2025-02-26 17:16:10.307,129735,28903,31337,13,298585,325310
2025-02-26 17:16:10.310,129752,28900,31333,1,298637,325352
2025-02-26 17:16:10.313,129765,28894,31346,5,298703,325407
2025-02-26 17:16:10.538,129769,28890,31344,8,298734,325471
2025-02-26 17:16:10.540,129771,28893,31346,10,298715,325542
2025-02-26 17:16:10.543,129752,28877,31337,1,298719,325591
2025-02-26 17:16:10.546,129747,28884,31333,1,298663,325502
2025-02-26 17:16:10.549,129757,28879,31332,2,298653,325475
2025-02-26 17:16:10.551,129737,28872,31324,7,298650,325481
2025-02-26 17:16:10.554,129760,28879,31333,9,298725,325448
2025-02-26 17:16:10.557,129766,28899,31341,0,298758,325506
2025-02-26 17:16:10.559,129800,28899,31370,4,298847,325594
2025-02-26 17:16:10.561,129802,28898,31375,6,298783,325617
2025-02-26 17:16:10.563,129808,28908,31364,4,298799,325659
2025-02-26 17:16:10.565,129796,28921,31377,2,298792,325642
2025-02-26 17:16:10.568,129818,28920,31377,7,298809,325651
2025-02-26 17:16:10.571,129838,28909,31395,0,298805,325689
2025-02-26 17:16:10.573,129858,28930,31377,5,298941,325772
2025-02-26 17:16:10.576,129876,28934,31393,7,298896,325734
2025-02-26 17:16:10.579,129893,28944,31404,4,298933,325813
2025-02-26 17:16:10.582,129895,28945,31413,0,298899,325842
2025-02-26 17:16:10.585,129918,28968,31419,4,298953,325775
2025-02-26 17:16:10.780,129944,28979,31429,10,299011,325866
2025-02-26 17:16:10.783,129973,28993,31447,12,299121,325925
2025-02-26 17:16:10.786,130002,28995,31477,2,299182,326055
2025-02-26 17:16:10.789,130010,29028,31499,14,299306,326099
2025-02-26 17:16:10.792,130047,29043,31511,10,299309,326152
2025-02-26 17:16:10.796,130057,29024,31493,4,299286,326213
2025-02-26 17:16:10.799,130053,29034,31494,5,299236,326216
2025-02-26 17:16:10.802,130084,29017,31506,0,299281,326191
2025-02-26 17:16:10.804,130104,29034,31507,1,299370,326242
2025-02-26 17:16:10.806,130134,29046,31531,0,299475,326330
2025-02-26 17:16:10.809,130150,29050,31526,0,299513,326427
2025-02-26 17:16:10.812,130187,29058,31541,3,299512,326480
2025-02-26 17:16:10.815,130206,29058,31539,6,299532,326531
2025-02-26 17:16:10.818,130199,29051,31546,8,299543,326540
2025-02-26 17:16:10.820,130214,29053,31546,7,299513,326482
2025-02-26 17:16:10.823,130229,29051,31547,0,299553,326479
2025-02-26 17:16:10.825,130227,29059,31562,6,299611,326520
2025-02-26 17:16:10.828,130258,29065,31570,3,299654,326547
2025-02-26 17:16:11.069,130295,29081,31592,3,299739,326636
2025-02-26 17:16:11.072,130317,29096,31610,1,299730,326652
2025-02-26 17:16:11.075,130331,29106,31619,0,299792,326724
2025-02-26 17:16:11.078,130360,29113,31630,4,299823,326835
2025-02-26 17:16:11.080,130366,29109,31637,11,299834,326767
2025-02-26 17:16:11.083,130359,29121,31647,10,299832,326816
2025-02-26 17:16:11.085,130356,29131,31661,8,299863,326779
2025-02-26 17:16:11.089,130360,29126,31652,0,299864,326797
2025-02-26 17:16:11.092,130351,29118,31657,8,299915,326806
2025-02-26 17:16:11.094,130355,29120,31654,2,299930,326835
2025-02-26 17:16:11.097,130353,29120,31645,5,299912,326773
2025-02-26 17:16:11.099,130357,29109,31637,8,299869,326800
2025-02-26 17:16:11.101,130334,29098,31629,1,299826,326732
2025-02-26 17:16:11.103,130327,29086,31617,4,299831,326690
2025-02-26 17:16:11.106,130336,29090,31617,0,299838,326641
2025-02-26 17:16:11.108,130372,29089,31620,7,299905,326709
2025-02-26 17:16:11.110,130373,29089,31612,0,299893,326762
2025-02-26 17:16:11.115,130383,29070,31611,0,299823,326713
2025-02-26 17:16:11.118,130384,29068,31608,6,299803,326656
2025-02-26 17:16:11.305,130373,29061,31614,6,299729,326582
2025-02-26 17:16:11.307,130379,29067,31609,1,299628,326592
2025-02-26 17:16:11.309,130367,29056,31606,8,299592,326499
2025-02-26 17:16:11.312,130354,29046,31607,0,299509,326451
2025-02-26 17:16:11.315,130337,29030,31587,4,299400,326357
2025-02-26 17:16:11.318,130320,29005,31579,4,299311,326290
2025-02-26 17:16:11.321,130302,29009,31568,10,299233,326202
2025-02-26 17:16:11.324,130288,29001,31565,4,299178,326117
2025-02-26 17:16:11.326,130294,29002,31570,9,299172,326059
2025-02-26 17:16:11.329,130289,29003,31565,0,299157,326111
2025-02-26 17:16:11.333,130284,29002,31569,1,299192,326126
2025-02-26 17:16:11.335,130307,29015,31570,15,299155,326151
2025-02-26 17:16:11.339,130292,29011,31573,4,299151,326102
2025-02-26 17:16:11.342,130289,29014,31573,7,299094,326073
2025-02-26 17:16:11.346,130280,29014,31576,1,299043,325982
2025-02-26 17:16:11.349,130274,29018,31585,3,299047,326007
2025-02-26 17:16:11.353,130243,28996,31570,8,298991,325994
2025-02-26 17:16:11.625,130234,28997,31558,4,298983,325908
2025-02-26 17:16:11.628,130243,29007,31567,0,298992,325956
2025-02-26 17:16:11.631,130276,29001,31560,5,299021,325957
2025-02-26 17:16:11.634,130276,29001,31560,5,299021,325957
2025-02-26 17:16:11.639,130242,28995,31564,8,299005,325984
2025-02-26 17:16:11.643,130242,29002,31567,7,298963,325943
2025-02-26 17:16:11.647,130229,28992,31561,0,298967,325926
2025-02-26 17:16:11.650,130236,28994,31564,4,299002,325944
2025-02-26 17:16:11.654,130235,29003,31575,2,299071,325990
2025-02-26 17:16:11.657,130243,29005,31567,0,299062,326051
2025-02-26 17:16:11.661,130246,29011,31573,8,299098,326089
2025-02-26 17:16:11.664,130246,29011,31574,2,299098,326128
2025-02-26 17:16:11.668,130239,29006,31571,2,299060,326097
2025-02-26 17:16:11.672,130212,29008,31566,3,298998,326087
2025-02-26 17:16:11.875,130216,29000,31564,4,299016,326051
2025-02-26 17:16:11.877,130218,29016,31582,0,299016,326072
2025-02-26 17:16:11.879,130221,29024,31587,10,299023,326046
2025-02-26 17:16:11.882,130235,29026,31600,1,298992,326073
2025-02-26 17:16:11.884,130235,29024,31594,0,298966,326062
2025-02-26 17:16:11.888,130237,29026,31607,11,298926,326054
2025-02-26 17:16:11.891,130209,29025,31606,7,298892,325981
2025-02-26 17:16:11.894,130214,29028,31589,3,298799,325961
2025-02-26 17:16:11.897,130187,29019,31583,0,298753,325852
2025-02-26 17:16:11.899,130191,29023,31580,8,298720,325797
2025-02-26 17:16:11.902,130176,29026,31579,9,298687,325788
2025-02-26 17:16:11.905,130153,29016,31580,2,298637,325747
2025-02-26 17:16:11.907,130136,29017,31583,5,298619,325704
2025-02-26 17:16:11.909,130119,29011,31574,0,298588,325619
2025-02-26 17:16:11.912,130111,29012,31562,11,298492,325539
2025-02-26 17:16:11.914,130105,29002,31557,2,298416,325481
2025-02-26 17:16:11.917,130055,28986,31539,13,298259,325385
2025-02-26 17:16:11.921,130045,28968,31526,11,298176,325260
2025-02-26 17:16:12.163,130028,28944,31492,0,298092,325133
2025-02-26 17:16:12.166,130014,28949,31488,3,298045,325035
2025-02-26 17:16:12.168,130024,28949,31490,0,298124,325036
2025-02-26 17:16:12.171,130022,28941,31487,2,298102,325053
2025-02-26 17:16:12.173,130024,28929,31481,0,298108,325105
2025-02-26 17:16:12.176,130037,28925,31478,0,298056,325094
2025-02-26 17:16:12.178,130023,28918,31471,6,298060,325055
2025-02-26 17:16:12.181,130045,28912,31458,7,298105,325079
2025-02-26 17:16:12.184,130038,28919,31468,15,298181,325087
2025-02-26 17:16:12.186,130066,28925,31481,6,298223,325184
2025-02-26 17:16:12.188,130068,28923,31489,5,298326,325225
2025-02-26 17:16:12.191,130099,28923,31483,3,298361,325384
2025-02-26 17:16:12.194,130111,28929,31489,0,298401,325450
2025-02-26 17:16:12.196,130123,28925,31489,3,298422,325457
2025-02-26 17:16:12.198,130124,28929,31492,10,298485,325487
2025-02-26 17:16:12.201,130156,28951,31510,4,298601,325556
2025-02-26 17:16:12.203,130196,28964,31526,4,298700,325720
2025-02-26 17:16:12.207,130233,28975,31541,11,298836,325815
2025-02-26 17:16:12.210,130241,28993,31563,8,298920,325940
2025-02-26 17:16:12.212,130275,28984,31560,9,299036,326051
2025-02-26 17:16:12.391,130276,28996,31579,6,299058,326067
2025-02-26 17:16:12.394,130300,29018,31575,4,299163,326220
2025-02-26 17:16:12.397,130321,29027,31596,8,299250,326289
2025-02-26 17:16:12.401,130330,29032,31594,19,299348,326417
2025-02-26 17:16:12.403,130345,29035,31617,0,299464,326564
2025-02-26 17:16:12.406,130356,29045,31618,11,299482,326580
2025-02-26 17:16:12.409,130383,29060,31615,2,299499,326681
2025-02-26 17:16:12.412,130403,29049,31629,4,299574,326714
2025-02-26 17:16:12.416,130432,29060,31630,3,299654,326771
2025-02-26 17:16:12.419,130452,29056,31625,6,299657,326841
2025-02-26 17:16:12.421,130452,29065,31647,4,299759,326895
2025-02-26 17:16:12.424,130478,29073,31664,7,299860,326920
2025-02-26 17:16:12.427,130528,29094,31684,1,299989,327006
2025-02-26 17:16:12.430,130552,29102,31700,0,300095,327197
2025-02-26 17:16:12.433,130598,29128,31718,3,300208,327329
2025-02-26 17:16:12.436,130633,29150,31746,4,300330,327476
2025-02-26 17:16:12.441,130647,29147,31757,0,300443,327571
2025-02-26 17:16:12.676,130679,29150,31771,8,300459,327585
2025-02-26 17:16:12.679,130694,29172,31787,8,300538,327705
2025-02-26 17:16:12.682,130727,29181,31791,1,300613,327722
2025-02-26 17:16:12.684,130753,29186,31801,11,300657,327805
2025-02-26 17:16:12.688,130769,29193,31820,4,300716,327867
2025-02-26 17:16:12.690,130791,29199,31841,4,300789,327956
2025-02-26 17:16:12.693,130776,29194,31831,8,300834,328011
2025-02-26 17:16:12.697,130775,29193,31817,4,300820,328045
2025-02-26 17:16:12.699,130800,29184,31815,6,300787,328036
2025-02-26 17:16:12.702,130771,29190,31817,2,300749,328054
2025-02-26 17:16:12.704,130767,29170,31821,0,300740,327976
2025-02-26 17:16:12.706,130750,29163,31784,3,300735,327980
2025-02-26 17:16:12.708,130745,29148,31770,1,300671,327924
2025-02-26 17:16:12.711,130734,29133,31751,4,300603,327903
2025-02-26 17:16:12.713,130697,29101,31736,11,300522,327790
2025-02-26 17:16:12.715,130697,29101,31736,11,300522,327790
2025-02-26 17:16:12.718,130642,29062,31690,5,300269,327586
2025-02-26 17:16:12.722,130614,29041,31667,1,300151,327501
2025-02-26 17:16:12.920,130583,29016,31650,4,300112,327357
2025-02-26 17:16:12.922,130582,29009,31628,8,300052,327303
2025-02-26 17:16:12.925,130571,29014,31618,13,300056,327284
2025-02-26 17:16:12.927,130596,29004,31617,6,300048,327306
2025-02-26 17:16:12.930,130607,29013,31619,5,300055,327307
2025-02-26 17:16:12.932,130595,29011,31627,1,300004,327360
2025-02-26 17:16:12.935,130597,28982,31614,9,299957,327336
2025-02-26 17:16:12.939,130579,28999,31608,0,299909,327265
2025-02-26 17:16:12.941,130567,28980,31611,1,299871,327203
2025-02-26 17:16:12.943,130576,28984,31612,7,299863,327204
2025-02-26 17:16:12.946,130538,28981,31603,8,299884,327168
2025-02-26 17:16:12.948,130564,28990,31609,3,299920,327178
2025-02-26 17:16:12.951,130556,28967,31603,2,299867,327196
2025-02-26 17:16:12.953,130538,28969,31600,2,299788,327181
2025-02-26 17:16:12.955,130505,28954,31579,4,299729,327089
2025-02-26 17:16:12.957,130492,28952,31583,7,299637,327009
2025-02-26 17:16:12.960,130479,28951,31578,8,299590,326982
2025-02-26 17:16:12.962,130455,28945,31565,5,299544,326949
2025-02-26 17:16:12.966,130433,28932,31554,7,299503,326891
2025-02-26 17:16:13.216,130422,28935,31558,0,299501,326881
2025-02-26 17:16:13.219,130434,28935,31560,3,299529,326884
2025-02-26 17:16:13.222,130427,28938,31566,4,299530,326908
2025-02-26 17:16:13.226,130421,28950,31566,6,299561,326912
2025-02-26 17:16:13.229,130416,28962,31552,11,299579,326921
2025-02-26 17:16:13.232,130418,28949,31583,0,299577,326972
2025-02-26 17:16:13.235,130416,28951,31562,4,299555,326960
2025-02-26 17:16:13.239,130417,28955,31575,3,299637,326993
2025-02-26 17:16:13.243,130442,28960,31582,8,299688,327057
2025-02-26 17:16:13.246,130449,28963,31589,6,299729,327086
2025-02-26 17:16:13.250,130471,28981,31612,7,299754,327132
2025-02-26 17:16:13.253,130469,28988,31603,3,299815,327207
2025-02-26 17:16:13.257,130481,28993,31628,1,299844,327242
2025-02-26 17:16:13.259,130499,29002,31637,5,299876,327268
2025-02-26 17:16:13.262,130507,29020,31644,0,299956,327344
2025-02-26 17:16:13.472,130507,29025,31662,8,299998,327383
2025-02-26 17:16:13.475,130514,29037,31675,3,300004,327451
2025-02-26 17:16:13.478,130528,29038,31681,14,299984,327512
2025-02-26 17:16:13.481,130519,29044,31678,3,299974,327495
2025-02-26 17:16:13.484,130525,29024,31673,6,299934,327466
2025-02-26 17:16:13.487,130497,29033,31671,8,299844,327393
2025-02-26 17:16:13.490,130483,29010,31657,1,299756,327346
2025-02-26 17:16:13.493,130470,29019,31641,0,299697,327256
2025-02-26 17:16:13.496,130460,29005,31642,5,299690,327242
2025-02-26 17:16:13.499,130453,29020,31643,4,299722,327220
2025-02-26 17:16:13.502,130461,29021,31635,0,299679,327247
2025-02-26 17:16:13.504,130472,29032,31645,2,299688,327210
2025-02-26 17:16:13.507,130459,29022,31652,13,299696,327230
2025-02-26 17:16:13.509,130459,29023,31650,7,299617,327203
2025-02-26 17:16:13.511,130436,29019,31641,0,299617,327184
2025-02-26 17:16:13.514,130419,29018,31642,1,299644,327161
2025-02-26 17:16:13.516,130398,29007,31633,0,299643,327135
2025-02-26 17:16:13.521,130400,29018,31620,3,299613,327113
2025-02-26 17:16:13.746,130386,29003,31631,8,299593,327154
2025-02-26 17:16:13.749,130397,29010,31615,16,299532,327060
2025-02-26 17:16:13.751,130367,28993,31595,3,299486,327030
2025-02-26 17:16:13.753,130348,28974,31580,1,299423,326904
2025-02-26 17:16:13.756,130336,28968,31581,0,299351,326870
