Timestamp,PPG1,PPG2,PPG3,PPG4,PPG5,PPG6
2025-02-25 10:42:59.041,92134,16572,19287,5,87896,182903
2025-02-25 10:42:59.225,92255,16578,19330,3,88129,183231
2025-02-25 10:42:59.230,92166,16544,19289,5,88106,183030
2025-02-25 10:42:59.232,92157,16525,19271,4,88085,182944
2025-02-25 10:42:59.830,92211,16541,19308,3,88177,183074
2025-02-25 10:42:59.833,92194,16533,19302,4,88145,182974
2025-02-25 10:42:59.835,92095,16515,19273,2,88079,182810
2025-02-25 10:42:59.836,91937,16466,19192,4,87917,182511
2025-02-25 10:42:59.839,91913,16416,19112,5,87824,182381
2025-02-25 10:42:59.841,91987,16405,19128,4,87895,182540
2025-02-25 10:42:59.971,91992,16404,19135,3,87937,182593
2025-02-25 10:43:00.014,92051,16408,19158,4,88013,182720
2025-02-25 10:43:00.114,92085,16429,19191,6,88073,182790
2025-02-25 10:43:00.223,92031,16417,19188,2,88012,182717
2025-02-25 10:43:00.346,91884,16403,19172,4,87924,182548
2025-02-25 10:43:00.473,91805,16373,19111,4,87882,182412
2025-02-25 10:43:00.510,91794,16349,19080,6,87901,182426
2025-02-25 10:43:00.610,91849,16361,19104,4,87975,182570
2025-02-25 10:43:00.736,91863,16349,19105,4,88010,182632
2025-02-25 10:43:00.851,91828,16344,19105,4,88012,182592
2025-02-25 10:43:00.981,91876,16385,19151,5,88075,182692
2025-02-25 10:43:01.001,91959,16432,19208,4,88149,182785
2025-02-25 10:43:01.101,91889,16406,19172,5,88111,182685
2025-02-25 10:43:01.226,91915,16392,19170,5,88193,182889
2025-02-25 10:43:01.338,91949,16402,19199,4,88248,183013
2025-02-25 10:43:01.468,91877,16377,19180,4,88174,182916
2025-02-25 10:43:01.505,91837,16369,19177,7,88157,182860
2025-02-25 10:43:01.772,91883,16379,19198,5,88159,182883
2025-02-25 10:43:01.774,91948,16398,19246,5,88191,182985
2025-02-25 10:43:01.805,91914,16410,19259,5,88170,182911
2025-02-25 10:43:01.926,91927,16407,19248,5,88165,182952
2025-02-25 10:43:02.106,91908,16368,19208,2,88190,183000
2025-02-25 10:43:02.108,91901,16361,19203,6,88211,183032
2025-02-25 10:43:02.355,91914,16358,19209,6,88228,183084
2025-02-25 10:43:02.359,91899,16361,19221,4,88239,183117
2025-02-25 10:43:02.398,91910,16373,19248,6,88241,183141
2025-02-25 10:43:02.512,91918,16389,19272,6,88249,183156
2025-02-25 10:43:02.648,91912,16403,19290,6,88241,183150
2025-02-25 10:43:02.777,91894,16404,19293,7,88197,183063
2025-02-25 10:43:02.801,91895,16417,19301,4,88168,183004
2025-02-25 10:43:02.979,91903,16439,19311,3,88184,183029
2025-02-25 10:43:02.994,91945,16431,19289,5,88246,183139
2025-02-25 10:43:03.126,92005,16428,19287,3,88301,183199
2025-02-25 10:43:03.282,91816,16395,19237,9,88211,183045
2025-02-25 10:43:03.293,91828,16398,19239,7,88205,183104
2025-02-25 10:43:03.566,91921,16384,19266,3,88180,183138
2025-02-25 10:43:03.569,91836,16386,19250,3,88090,182835
2025-02-25 10:43:03.597,91994,16424,19316,6,88178,183056
2025-02-25 10:43:03.715,92003,16454,19359,3,88211,183079
2025-02-25 10:43:03.888,91915,16456,19339,3,88117,182875
2025-02-25 10:43:03.897,92012,16444,19331,3,88133,182994
2025-02-25 10:43:04.031,92035,16406,19301,3,88205,183160
2025-02-25 10:43:04.156,91930,16393,19281,4,88143,182948
2025-02-25 10:43:04.189,91913,16387,19260,4,88137,182891
2025-02-25 10:43:04.296,91943,16390,19267,3,88160,182944
2025-02-25 10:43:04.422,91946,16396,19280,3,88173,182965
2025-02-25 10:43:04.605,91903,16404,19277,3,88138,182870
2025-02-25 10:43:04.606,91921,16405,19271,4,88081,182750
2025-02-25 10:43:04.779,91914,16418,19286,5,88074,182705
2025-02-25 10:43:04.785,91846,16401,19252,6,88056,182677
2025-02-25 10:43:04.945,91869,16371,19218,5,88104,182770
2025-02-25 10:43:04.986,91856,16361,19212,4,88107,182762
2025-02-25 10:43:05.085,91851,16354,19201,3,88100,182735
2025-02-25 10:43:05.218,91846,16347,19190,4,88073,182672
2025-02-25 10:43:05.344,91770,16337,19184,3,88001,182574
2025-02-25 10:43:05.377,91816,16360,19205,7,88025,182590
2025-02-25 10:43:05.642,91803,16364,19219,5,88028,182601
2025-02-25 10:43:05.644,91748,16329,19174,4,88002,182600
2025-02-25 10:43:05.681,91725,16284,19127,5,88009,182613
2025-02-25 10:43:05.786,91686,16261,19100,4,87972,182530
2025-02-25 10:43:05.941,91715,16263,19107,2,88001,182612
2025-02-25 10:43:05.961,91808,16286,19151,6,88065,182753
2025-02-25 10:43:06.110,91803,16307,19186,3,88079,182786
2025-02-25 10:43:06.260,91770,16320,19196,3,88060,182755
2025-02-25 10:43:06.263,91632,16289,19138,5,87921,182472
2025-02-25 10:43:06.508,91644,16227,19056,4,87844,182356
2025-02-25 10:43:06.510,91662,16217,19074,5,87906,182538
2025-02-25 10:43:06.649,91708,16240,19116,4,87983,182691
2025-02-25 10:43:06.665,91713,16239,19128,5,88014,182729
2025-02-25 10:43:06.774,91729,16248,19140,3,88013,182692
2025-02-25 10:43:06.924,91734,16252,19155,4,88019,182693
2025-02-25 10:43:06.959,91801,16282,19204,5,88087,182849
2025-02-25 10:43:07.057,91794,16277,19196,4,88086,182863
2025-02-25 10:43:07.205,91791,16220,19137,4,88094,182852
2025-02-25 10:43:07.384,91779,16199,19128,4,88100,182884
2025-02-25 10:43:07.386,91730,16200,19142,5,88142,182956
2025-02-25 10:43:07.530,92040,16243,19227,4,88271,183233
2025-02-25 10:43:07.561,91741,16219,19198,4,88171,182980
2025-02-25 10:43:07.657,91803,16220,19199,4,88144,182909
2025-02-25 10:43:07.803,91876,16247,19248,6,88202,183029
2025-02-25 10:43:07.931,91838,16235,19218,3,88177,182974
2025-02-25 10:43:07.953,91873,16199,19195,3,88210,183053
2025-02-25 10:43:08.077,91919,16209,19227,5,88248,183159
2025-02-25 10:43:08.252,91840,16205,19215,4,88201,183011
2025-02-25 10:43:08.255,91895,16203,19225,5,88210,183018
2025-02-25 10:43:08.411,91864,16207,19229,6,88191,182961
2025-02-25 10:43:08.458,91830,16206,19228,7,88155,182872
2025-02-25 10:43:08.584,91921,16242,19275,3,88229,183015
2025-02-25 10:43:08.656,91694,16188,19196,4,88092,182704
2025-02-25 10:43:08.856,91722,16166,19178,5,88072,182685
2025-02-25 10:43:08.861,91991,16198,19253,3,88238,183028
2025-02-25 10:43:08.993,91741,16156,19197,2,88131,182765
2025-02-25 10:43:09.148,91753,16138,19180,5,88070,182673
2025-02-25 10:43:09.150,91733,16131,19171,2,88037,182603
2025-02-25 10:43:09.303,91652,16108,19123,4,87949,182445
2025-02-25 10:43:09.450,91640,16106,19114,3,87934,182440
2025-02-25 10:43:09.453,91573,16061,19048,4,87907,182401
2025-02-25 10:43:09.579,91710,16071,19084,5,87985,182571
2025-02-25 10:43:09.725,91711,16088,19130,7,88057,182673
2025-02-25 10:43:09.745,91674,16096,19140,6,88052,182659
2025-02-25 10:43:09.897,91798,16123,19194,7,88115,182762
2025-02-25 10:43:09.945,91761,16120,19196,4,88074,182712
2025-02-25 10:43:10.044,91734,16108,19196,4,88041,182705
2025-02-25 10:43:10.165,91763,16090,19178,3,88063,182756
2025-02-25 10:43:10.313,91768,16087,19182,4,88109,182824
2025-02-25 10:43:10.349,91842,16115,19232,4,88163,182968
2025-02-25 10:43:10.449,91894,16116,19247,3,88160,183005
2025-02-25 10:43:10.592,91869,16112,19250,6,88129,182912
2025-02-25 10:43:10.641,91862,16142,19287,6,88148,182929
2025-02-25 10:43:10.741,91802,16155,19296,5,88113,182814
2025-02-25 10:43:10.860,91777,16141,19260,3,88039,182654
2025-02-25 10:43:11.003,91752,16096,19205,2,88051,182682
2025-02-25 10:43:11.041,91674,16066,19172,3,88020,182633
2025-02-25 10:43:11.231,91673,16060,19167,5,88012,182656
2025-02-25 10:43:11.242,91653,16062,19163,4,88000,182653
2025-02-25 10:43:11.359,91605,16065,19164,4,87952,182579
2025-02-25 10:43:11.502,91670,16097,19204,4,87982,182641
2025-02-25 10:43:11.544,91619,16101,19211,3,87939,182538
2025-02-25 10:43:11.668,91547,16104,19196,4,87894,182443
2025-02-25 10:43:11.807,91677,16093,19195,5,87973,182634
2025-02-25 10:43:11.837,91602,16070,19167,5,87950,182544
2025-02-25 10:43:11.937,91596,16058,19167,5,87921,182528
2025-02-25 10:43:12.069,91622,16069,19187,3,87952,182586
2025-02-25 10:43:12.210,91721,16098,19230,5,87997,182660
2025-02-25 10:43:12.237,91687,16111,19260,5,87981,182630
2025-02-25 10:43:12.355,91538,16099,19225,4,87878,182382
2025-02-25 10:43:12.473,91672,16127,19263,4,87913,182492
2025-02-25 10:43:12.624,91645,16107,19235,5,87958,182579
2025-02-25 10:43:12.627,91624,16083,19205,4,87934,182513
2025-02-25 10:43:12.793,91668,16089,19217,5,87939,182528
2025-02-25 10:43:12.822,91623,16083,19207,5,87919,182466
2025-02-25 10:43:12.935,91596,16078,19192,5,87886,182367
2025-02-25 10:43:13.057,91575,16080,19195,4,87867,182313
2025-02-25 10:43:13.202,91534,16075,19183,4,87831,182259
2025-02-25 10:43:13.224,91509,16079,19180,4,87816,182225
2025-02-25 10:43:13.374,91546,16048,19138,3,87848,182298
2025-02-25 10:43:13.417,91450,16017,19094,5,87809,182213
2025-02-25 10:43:13.518,91427,16007,19074,6,87761,182125
2025-02-25 10:43:13.670,91533,16021,19099,6,87794,182206
2025-02-25 10:43:13.717,91402,16015,19080,5,87738,182064
2025-02-25 10:43:13.817,91476,16033,19105,3,87733,182085
2025-02-25 10:43:13.951,91490,16044,19124,4,87740,182120
2025-02-25 10:43:14.095,91367,16010,19071,6,87685,182068
2025-02-25 10:43:14.121,91553,16019,19108,5,87762,182297
2025-02-25 10:43:14.221,91459,16024,19115,6,87730,182178
2025-02-25 10:43:14.363,91509,16038,19137,7,87732,182227
2025-02-25 10:43:14.542,91523,16057,19161,5,87724,182171
2025-02-25 10:43:14.544,91512,16073,19176,4,87690,182086
2025-02-25 10:43:14.684,91478,16087,19188,3,87658,182029
2025-02-25 10:43:14.713,91434,16060,19139,6,87616,181950
2025-02-25 10:43:14.813,91445,16042,19115,5,87645,182024
2025-02-25 10:43:14.960,91452,16042,19123,6,87649,182048
2025-02-25 10:43:15.076,91436,16045,19124,6,87636,182026
2025-02-25 10:43:15.116,91426,16049,19132,5,87622,181960
2025-02-25 10:43:15.219,91443,16069,19153,2,87613,181921
2025-02-25 10:43:15.343,91462,16084,19176,5,87610,181897
2025-02-25 10:43:15.485,91381,16079,19156,4,87564,181817
2025-02-25 10:43:15.508,91373,16050,19119,4,87567,181859
2025-02-25 10:43:15.608,91357,16032,19095,4,87524,181809
2025-02-25 10:43:15.760,91313,16033,19105,3,87482,181766
2025-02-25 10:43:15.809,91422,16069,19147,6,87546,181839
2025-02-25 10:43:15.910,91369,16080,19157,6,87510,181744
2025-02-25 10:43:16.035,91397,16098,19186,5,87501,181743
2025-02-25 10:43:16.206,91510,16135,19245,3,87557,181857
2025-02-25 10:43:16.213,91324,16113,19191,4,87410,181540
2025-02-25 10:43:16.362,91254,16058,19104,5,87276,181288
2025-02-25 10:43:16.405,91353,16077,19141,4,87373,181557
2025-02-25 10:43:16.504,91392,16107,19188,6,87446,181771
2025-02-25 10:43:16.636,91192,16059,19116,4,87247,181312
2025-02-25 10:43:16.814,91280,16080,19146,4,87233,181367
2025-02-25 10:43:16.816,91401,16143,19241,7,87383,181730
2025-02-25 10:43:16.956,91319,16136,19214,3,87265,181434
2025-02-25 10:43:16.997,91231,16126,19189,6,87151,181228
2025-02-25 10:43:17.097,91393,16163,19241,5,87356,181753
2025-02-25 10:43:17.244,91331,16138,19212,6,87297,181577
2025-02-25 10:43:17.289,91183,16115,19170,5,87128,181278
2025-02-25 10:43:17.389,91366,16158,19240,5,87286,181662
2025-02-25 10:43:17.516,91265,16154,19225,6,87204,181402
2025-02-25 10:43:17.645,91212,16144,19193,5,87054,181119
2025-02-25 10:43:17.693,91206,16154,19204,4,87054,181132
2025-02-25 10:43:17.798,91213,16155,19195,3,87033,181085
2025-02-25 10:43:17.926,91214,16128,19163,5,87084,181186
2025-02-25 10:43:18.122,91192,16115,19145,4,87102,181207
2025-02-25 10:43:18.124,91168,16099,19127,3,87069,181151
2025-02-25 10:43:18.253,91157,16090,19107,3,87042,181076
2025-02-25 10:43:18.286,91205,16104,19125,5,87055,181090
2025-02-25 10:43:18.408,91224,16114,19138,4,87062,181067
2025-02-25 10:43:18.578,91144,16104,19118,5,87024,180988
2025-02-25 10:43:18.589,91112,16072,19072,5,87031,181065
2025-02-25 10:43:18.731,91156,16078,19080,2,87115,181219
2025-02-25 10:43:18.864,91281,16103,19118,4,87174,181281
2025-02-25 10:43:18.888,91211,16096,19104,3,87142,181198
2025-02-25 10:43:19.019,91181,16100,19105,6,87093,181085
2025-02-25 10:43:19.147,91219,16122,19136,6,87117,181124
2025-02-25 10:43:19.188,91289,16129,19142,4,87106,181085
2025-02-25 10:43:19.307,91022,16070,19053,4,86967,180839
2025-02-25 10:43:19.430,91147,16068,19064,5,87055,181114
2025-02-25 10:43:19.582,91163,16069,19067,5,87089,181189
2025-02-25 10:43:19.585,91124,16058,19047,4,87075,181186
2025-02-25 10:43:19.750,91127,16068,19059,4,87060,181177
2025-02-25 10:43:19.784,91228,16111,19121,3,87120,181348
2025-02-25 10:43:19.896,91216,16148,19159,4,87139,181415
2025-02-25 10:43:20.023,91222,16129,19127,2,87138,181418
2025-02-25 10:43:20.173,91272,16128,19139,5,87219,181636
2025-02-25 10:43:20.177,91178,16124,19136,5,87194,181605
2025-02-25 10:43:20.355,91137,16124,19120,5,87145,181509
2025-02-25 10:43:20.368,91240,16138,19134,2,87155,181477
2025-02-25 10:43:20.499,91182,16133,19123,2,87097,181352
2025-02-25 10:43:20.631,91165,16140,19138,4,87093,181358
2025-02-25 10:43:20.671,91147,16132,19121,2,87103,181431
2025-02-25 10:43:20.784,91265,16119,19114,6,87196,181627
2025-02-25 10:43:20.916,91180,16097,19090,4,87202,181615
2025-02-25 10:43:21.064,91100,16078,19061,3,87142,181515
2025-02-25 10:43:21.067,91147,16093,19064,8,87133,181491
2025-02-25 10:43:21.190,91090,16081,19037,6,87044,181258
2025-02-25 10:43:21.339,91008,16064,19011,4,86931,181063
2025-02-25 10:43:21.365,91043,16093,19058,5,86964,181231
2025-02-25 10:43:21.507,91088,16108,19073,5,86975,181300
2025-02-25 10:43:21.658,91123,16064,19021,5,86970,181316
2025-02-25 10:43:21.665,90962,16029,18967,3,86864,181065
2025-02-25 10:43:21.786,90916,16005,18931,4,86784,180931
2025-02-25 10:43:21.939,90978,15999,18925,5,86789,180940
2025-02-25 10:43:21.969,90905,15989,18907,5,86740,180852
2025-02-25 10:43:22.127,90902,15999,18919,6,86727,180849
2025-02-25 10:43:22.157,90901,16010,18922,4,86697,180809
2025-02-25 10:43:22.276,90840,15988,18885,5,86654,180783
2025-02-25 10:43:22.409,90830,15962,18856,4,86687,180906
2025-02-25 10:43:22.557,90834,15975,18865,5,86690,180902
2025-02-25 10:43:22.561,90926,15996,18887,6,86719,180936
2025-02-25 10:43:22.686,90798,15986,18866,4,86651,180798
2025-02-25 10:43:22.841,90772,15993,18872,3,86602,180725
2025-02-25 10:43:22.864,90791,16008,18887,6,86588,180699
2025-02-25 10:43:22.971,90831,16023,18899,4,86595,180739
2025-02-25 10:43:23.174,90816,16006,18874,7,86627,180840
2025-02-25 10:43:23.176,90824,16011,18890,5,86632,180885
2025-02-25 10:43:23.300,90826,16017,18891,4,86611,180844
2025-02-25 10:43:23.458,90881,16029,18906,5,86606,180861
2025-02-25 10:43:23.460,90974,16062,18969,3,86669,181003
2025-02-25 10:43:23.586,90999,16097,19020,5,86714,181116
2025-02-25 10:43:23.773,90945,16103,19016,3,86690,181092
2025-02-25 10:43:23.776,90952,16073,18967,4,86681,181128
2025-02-25 10:43:23.907,90943,16053,18974,7,86675,181239
2025-02-25 10:43:23.948,90950,16079,19007,4,86701,181219
2025-02-25 10:43:24.063,90961,16092,19017,4,86696,181166
2025-02-25 10:43:24.188,91005,16111,19037,1,86683,181138
2025-02-25 10:43:24.338,90997,16141,19080,3,86711,181223
2025-02-25 10:43:24.353,90977,16167,19110,4,86705,181226
2025-02-25 10:43:24.467,91046,16180,19111,3,86720,181289
2025-02-25 10:43:24.647,91070,16165,19095,6,86709,181246
2025-02-25 10:43:24.653,91107,16165,19111,5,86714,181317
2025-02-25 10:43:24.788,91105,16183,19146,3,86747,181403
2025-02-25 10:43:24.982,91159,16205,19169,3,86745,181368
2025-02-25 10:43:24.984,91104,16205,19180,4,86689,181216
2025-02-25 10:43:25.109,91155,16216,19201,4,86680,181229
2025-02-25 10:43:25.146,91126,16231,19219,6,86661,181165
2025-02-25 10:43:25.260,91032,16215,19173,4,86593,180998
2025-02-25 10:43:25.446,91087,16208,19166,5,86619,181059
2025-02-25 10:43:25.448,91115,16202,19171,4,86606,181059
2025-02-25 10:43:25.594,91098,16200,19170,1,86583,180970
2025-02-25 10:43:25.726,91066,16203,19170,5,86543,180869
2025-02-25 10:43:25.749,91053,16213,19177,5,86497,180761
2025-02-25 10:43:25.877,91021,16221,19183,6,86453,180651
2025-02-25 10:43:26.004,90990,16233,19186,5,86420,180566
2025-02-25 10:43:26.042,90965,16220,19152,4,86404,180511
2025-02-25 10:43:26.160,90986,16213,19148,4,86409,180497
2025-02-25 10:43:26.295,90995,16226,19168,3,86413,180514
2025-02-25 10:43:26.449,90979,16230,19167,4,86385,180427
2025-02-25 10:43:26.452,90952,16228,19166,6,86326,180294
2025-02-25 10:43:26.626,90910,16234,19170,5,86268,180163
2025-02-25 10:43:26.645,90901,16244,19176,6,86224,180111
2025-02-25 10:43:26.783,90853,16230,19162,4,86195,180122
2025-02-25 10:43:26.910,90851,16217,19154,4,86205,180147
2025-02-25 10:43:26.937,90849,16228,19166,6,86208,180139
2025-02-25 10:43:27.070,90798,16242,19162,5,86151,179990
2025-02-25 10:43:27.252,90806,16242,19157,6,86078,179800
2025-02-25 10:43:27.254,90804,16255,19176,3,86069,179786
2025-02-25 10:43:27.395,90759,16259,19180,7,86066,179811
2025-02-25 10:43:27.441,90692,16244,19137,4,85993,179650
2025-02-25 10:43:27.541,90786,16243,19138,4,86042,179746
2025-02-25 10:43:27.674,90802,16255,19164,3,86103,179896
2025-02-25 10:43:27.809,90807,16265,19181,4,86150,180012
2025-02-25 10:43:27.832,90799,16257,19172,5,86102,179874
2025-02-25 10:43:27.965,90686,16239,19133,4,85977,179610
2025-02-25 10:43:28.100,90707,16254,19156,7,86010,179755
2025-02-25 10:43:28.132,90668,16241,19124,7,85987,179710
2025-02-25 10:43:28.255,90592,16209,19081,3,85915,179538
2025-02-25 10:43:28.433,90666,16235,19118,3,86024,179807
2025-02-25 10:43:28.436,90716,16257,19150,5,86111,180019
2025-02-25 10:43:28.594,90598,16220,19089,3,85983,179754
2025-02-25 10:43:28.637,90403,16174,19008,4,85700,179179
2025-02-25 10:43:28.736,90557,16197,19044,3,85684,179189
2025-02-25 10:43:28.951,90576,16210,19073,5,85741,179358
2025-02-25 10:43:28.953,90639,16223,19103,5,85843,179566
2025-02-25 10:43:29.075,90813,16257,19157,3,85900,179658
2025-02-25 10:43:29.226,90796,16277,19199,5,85952,179757
2025-02-25 10:43:29.232,90985,16335,19292,4,86108,180114
2025-02-25 10:43:29.357,90988,16361,19333,6,86103,180089
2025-02-25 10:43:29.513,91006,16365,19338,5,86023,179875
2025-02-25 10:43:29.533,90968,16344,19298,4,85965,179755
2025-02-25 10:43:29.643,91118,16296,19246,4,85956,179973
2025-02-25 10:43:29.801,91213,16226,19230,7,85912,180114
2025-02-25 10:43:29.825,90865,16218,19210,6,85763,179828
2025-02-25 10:43:29.932,91203,16245,19288,4,85816,180145
2025-02-25 10:43:30.141,91070,16233,19283,6,85751,179957
2025-02-25 10:43:30.143,91117,16224,19288,5,85687,179938
2025-02-25 10:43:30.271,90968,16215,19283,3,85660,179894
2025-02-25 10:43:30.424,90888,16204,19261,2,85622,179795
2025-02-25 10:43:30.428,90803,16201,19245,2,85591,179630
2025-02-25 10:43:30.566,90788,16211,19218,3,85618,179540
2025-02-25 10:43:30.810,90708,16228,19205,5,85544,179301
2025-02-25 10:43:30.812,90549,16226,19168,6,85400,178998
2025-02-25 10:43:30.821,90431,16206,19099,7,85216,178703
2025-02-25 10:43:30.939,90452,16196,19073,4,85121,178601
2025-02-25 10:43:31.100,90711,16212,19124,6,85312,179244
2025-02-25 10:43:31.124,90818,16216,19146,5,85372,179455
2025-02-25 10:43:31.239,90739,16208,19143,6,85297,179274
2025-02-25 10:43:31.395,90899,16269,19232,6,85441,179700
2025-02-25 10:43:31.425,90975,16318,19296,5,85527,179912
2025-02-25 10:43:31.524,90932,16330,19288,3,85417,179664
2025-02-25 10:43:31.682,90779,16300,19235,3,85272,179406
2025-02-25 10:43:31.717,90728,16263,19181,4,85174,179191
2025-02-25 10:43:31.866,90716,16282,19202,5,85186,179229
2025-02-25 10:43:32.026,91034,16331,19306,4,85407,179712
2025-02-25 10:43:32.028,91023,16346,19340,4,85450,179736
2025-02-25 10:43:32.181,91131,16386,19411,5,85519,179842
2025-02-25 10:43:32.220,91149,16423,19463,5,85534,179824
2025-02-25 10:43:32.336,91111,16444,19470,7,85522,179826
2025-02-25 10:43:32.470,91132,16434,19451,2,85537,179860
2025-02-25 10:43:32.636,91069,16412,19424,3,85500,179774
2025-02-25 10:43:32.639,91007,16398,19394,5,85413,179593
2025-02-25 10:43:32.768,90969,16382,19379,6,85334,179458
2025-02-25 10:43:32.813,90962,16380,19376,6,85286,179381
2025-02-25 10:43:32.923,90941,16377,19380,4,85258,179335
2025-02-25 10:43:33.059,90887,16373,19365,4,85228,179286
2025-02-25 10:43:33.223,90838,16358,19327,4,85205,179255
2025-02-25 10:43:33.226,90866,16338,19298,3,85253,179340
2025-02-25 10:43:33.356,90874,16323,19279,4,85253,179305
2025-02-25 10:43:33.508,90793,16308,19250,6,85156,179087
2025-02-25 10:43:33.517,90724,16303,19229,8,85055,178900
2025-02-25 10:43:33.686,90702,16308,19226,7,85011,178814
2025-02-25 10:43:33.709,90681,16316,19224,7,84998,178772
2025-02-25 10:43:33.857,90596,16310,19191,6,84941,178654
2025-02-25 10:43:34.002,90480,16286,19140,4,84836,178451
2025-02-25 10:43:34.009,90453,16290,19133,5,84760,178324
2025-02-25 10:43:34.248,90421,16287,19122,4,84706,178235
2025-02-25 10:43:34.250,90338,16275,19085,4,84622,178067
2025-02-25 10:43:34.375,90263,16270,19061,5,84537,177915
2025-02-25 10:43:34.405,90266,16283,19061,7,84531,177999
2025-02-25 10:43:34.539,90335,16300,19086,4,84637,178346
2025-02-25 10:43:34.671,90328,16292,19065,5,84638,178395
2025-02-25 10:43:34.705,90291,16269,19037,5,84605,178349
2025-02-25 10:43:34.834,90338,16288,19062,6,84681,178595
2025-02-25 10:43:34.973,90548,16336,19139,4,84907,179111
2025-02-25 10:43:35.005,90546,16359,19157,3,84914,179076
2025-02-25 10:43:35.128,90463,16353,19148,2,84835,178924
2025-02-25 10:43:35.308,90504,16354,19146,3,84778,178895
2025-02-25 10:43:35.310,90585,16364,19165,3,84773,178937
2025-02-25 10:43:35.465,90807,16386,19218,4,84978,179377
2025-02-25 10:43:35.501,90893,16404,19265,3,85145,179691
2025-02-25 10:43:35.606,90898,16417,19281,2,85145,179622
2025-02-25 10:43:35.775,90919,16416,19285,3,85090,179448
2025-02-25 10:43:35.801,90900,16422,19301,5,85087,179407
2025-02-25 10:43:35.962,90908,16430,19314,5,85086,179383
2025-02-25 10:43:36.005,90878,16433,19316,4,85034,179232
2025-02-25 10:43:36.115,90896,16444,19325,3,85073,179313
2025-02-25 10:43:36.250,90869,16435,19316,4,85093,179290
2025-02-25 10:43:36.411,90793,16448,19332,3,85143,179323
2025-02-25 10:43:36.413,91036,16521,19433,6,85407,179831
2025-02-25 10:43:36.544,90905,16520,19424,4,85328,179585
2025-02-25 10:43:36.711,90856,16517,19415,4,85239,179441
2025-02-25 10:43:36.714,91055,16504,19417,4,85244,179664
2025-02-25 10:43:36.843,90803,16549,19476,4,85201,179406
2025-02-25 10:43:37.012,90698,16530,19428,3,85103,179205
2025-02-25 10:43:37.014,90573,16490,19374,3,84939,178991
2025-02-25 10:43:37.215,90618,16485,19395,4,84933,179017
2025-02-25 10:43:37.217,90741,16507,19426,7,85062,179226
2025-02-25 10:43:37.375,90860,16479,19414,4,85153,179551
2025-02-25 10:43:37.393,90830,16441,19397,6,85133,179631
2025-02-25 10:43:37.567,90835,16437,19437,5,85188,179839
2025-02-25 10:43:37.593,90748,16446,19425,3,85039,179411
2025-02-25 10:43:37.727,90856,16437,19394,3,84944,179212
2025-02-25 10:43:37.854,90661,16442,19383,4,84916,179082
2025-02-25 10:43:37.894,90613,16461,19371,3,84823,178853
2025-02-25 10:43:38.025,90657,16479,19377,2,84855,178952
2025-02-25 10:43:38.162,90587,16472,19352,5,84778,178790
2025-02-25 10:43:38.186,90546,16473,19339,3,84710,178624
2025-02-25 10:43:38.327,90557,16478,19330,5,84702,178625
2025-02-25 10:43:38.471,90547,16461,19295,4,84665,178534
2025-02-25 10:43:38.489,90537,16457,19305,4,84752,178775
2025-02-25 10:43:38.628,90434,16443,19281,5,84736,178697
2025-02-25 10:43:38.819,90443,16424,19243,6,84639,178497
2025-02-25 10:43:38.821,90567,16441,19258,5,84766,178748
2025-02-25 10:43:38.975,90643,16454,19272,4,84861,178927
2025-02-25 10:43:38.993,90595,16444,19254,3,84865,178946
2025-02-25 10:43:39.116,90877,16475,19312,7,85196,179611
2025-02-25 10:43:39.342,90826,16464,19306,3,85230,179576
2025-02-25 10:43:39.344,90617,16427,19243,2,85024,179140
2025-02-25 10:43:39.385,90662,16410,19227,5,85016,179113
2025-02-25 10:43:39.485,90627,16398,19206,4,84963,178975
2025-02-25 10:43:39.636,90540,16383,19172,4,84854,178739
2025-02-25 10:43:39.775,90535,16357,19123,5,84827,178719
2025-02-25 10:43:39.786,90524,16321,19085,6,84927,178881
2025-02-25 10:43:39.940,90516,16302,19068,4,84991,179010
2025-02-25 10:43:39.989,90509,16289,19055,5,85052,179110
2025-02-25 10:43:40.089,90557,16294,19054,5,85147,179242
2025-02-25 10:43:40.244,90557,16300,19053,2,85170,179239
2025-02-25 10:43:40.281,90488,16281,19005,4,85066,179019
2025-02-25 10:43:40.381,90543,16252,18984,5,85174,179319
2025-02-25 10:43:40.590,90529,16256,18998,4,85312,179510
2025-02-25 10:43:40.592,90561,16261,18995,4,85340,179525
2025-02-25 10:43:40.731,90616,16273,19002,2,85401,179603
2025-02-25 10:43:40.893,90548,16257,18970,6,85298,179318
2025-02-25 10:43:40.896,90574,16244,18958,4,85256,179267
2025-02-25 10:43:41.087,90531,16222,18930,4,85326,179413
2025-02-25 10:43:41.089,90631,16215,18915,5,85489,179728
2025-02-25 10:43:41.254,90527,16184,18879,2,85426,179535
2025-02-25 10:43:41.277,90557,16165,18853,5,85388,179483
2025-02-25 10:43:41.382,90496,16158,18846,4,85391,179432
2025-02-25 10:43:41.551,90440,16150,18823,3,85347,179328
2025-02-25 10:43:41.577,90488,16143,18812,6,85372,179442
2025-02-25 10:43:41.692,90453,16102,18753,6,85414,179549
2025-02-25 10:43:41.862,90468,16079,18740,6,85493,179740
2025-02-25 10:43:41.881,90499,16092,18762,6,85579,179913
2025-02-25 10:43:41.996,90528,16097,18754,4,85628,179934
2025-02-25 10:43:42.209,90516,16090,18736,3,85582,179767
2025-02-25 10:43:42.211,90508,16083,18712,4,85514,179617
2025-02-25 10:43:42.347,90480,16086,18710,6,85638,179909
2025-02-25 10:43:42.361,90497,16053,18668,4,85722,180020
2025-02-25 10:43:42.515,90520,16041,18655,4,85727,179940
2025-02-25 10:43:42.660,90623,16055,18682,5,85856,180213
2025-02-25 10:43:42.665,90504,16053,18678,6,85875,180220
2025-02-25 10:43:42.904,90517,16043,18671,3,85804,180090
2025-02-25 10:43:42.906,90521,16045,18682,5,85839,180118
2025-02-25 10:43:43.033,90587,16014,18637,4,85880,180201
2025-02-25 10:43:43.057,90462,15960,18573,5,85832,180049
2025-02-25 10:43:43.199,90533,15933,18558,4,85818,180084
2025-02-25 10:43:43.336,90432,15915,18537,5,85793,179978
2025-02-25 10:43:43.357,90441,15918,18537,3,85796,179954
2025-02-25 10:43:43.507,90457,15938,18560,5,85828,180009
2025-02-25 10:43:43.645,90419,15935,18544,5,85779,179917
2025-02-25 10:43:43.661,90352,15891,18477,4,85739,179853
2025-02-25 10:43:43.812,90351,15867,18464,3,85778,179940
2025-02-25 10:43:43.861,90369,15869,18466,2,85801,179933
2025-02-25 10:43:44.030,90366,15861,18449,4,85800,179878
2025-02-25 10:43:44.053,90344,15853,18441,5,85748,179731
2025-02-25 10:43:44.203,90324,15846,18431,4,85686,179597
2025-02-25 10:43:44.340,90373,15859,18451,3,85732,179733
2025-02-25 10:43:44.355,90275,15826,18403,3,85687,179630
2025-02-25 10:43:44.574,90229,15791,18350,5,85655,179530
2025-02-25 10:43:44.576,90392,15806,18388,4,85711,179652
2025-02-25 10:43:44.709,90260,15776,18358,4,85677,179568
2025-02-25 10:43:44.757,90239,15766,18355,3,85652,179563
2025-02-25 10:43:44.884,90364,15784,18397,5,85698,179686
2025-02-25 10:43:45.028,90312,15787,18395,6,85642,179486
2025-02-25 10:43:45.049,90179,15753,18331,5,85519,179236
2025-02-25 10:43:45.206,90200,15714,18282,5,85529,179287
2025-02-25 10:43:45.249,90226,15705,18281,5,85553,179334
2025-02-25 10:43:45.349,90218,15695,18278,6,85555,179356
2025-02-25 10:43:45.511,90244,15705,18288,4,85605,179471
2025-02-25 10:43:45.553,90270,15723,18315,7,85641,179575
2025-02-25 10:43:45.704,90298,15750,18342,7,85660,179612
2025-02-25 10:43:45.753,90307,15767,18356,5,85631,179541
2025-02-25 10:43:45.876,90233,15758,18333,5,85578,179490
2025-02-25 10:43:46.017,90382,15743,18355,4,85735,179897
2025-02-25 10:43:46.045,90370,15741,18358,6,85739,179820
2025-02-25 10:43:46.239,90337,15745,18356,5,85722,179775
2025-02-25 10:43:46.245,90358,15774,18384,4,85765,179857
2025-02-25 10:43:46.366,90309,15793,18395,4,85718,179713
2025-02-25 10:43:46.535,90464,15810,18420,4,85653,179620
2025-02-25 10:43:46.549,90470,15858,18493,4,85809,179927
2025-02-25 10:43:46.679,90491,15892,18544,5,85849,179976
2025-02-25 10:43:46.851,90551,15914,18563,5,85797,179854
2025-02-25 10:43:46.854,90555,15894,18549,5,85773,179864
2025-02-25 10:43:46.986,90435,15866,18515,5,85723,179710
2025-02-25 10:43:47.162,90561,15878,18548,4,85772,179830
2025-02-25 10:43:47.165,90573,15883,18562,6,85790,179819
2025-02-25 10:43:47.353,90441,15865,18533,5,85672,179559
2025-02-25 10:43:47.356,90476,15861,18544,7,85638,179581
2025-02-25 10:43:47.516,90415,15874,18562,5,85615,179521
2025-02-25 10:43:47.545,90415,15888,18580,4,85600,179497
2025-02-25 10:43:47.652,90376,15898,18582,6,85571,179442
2025-02-25 10:43:47.821,90357,15886,18554,5,85546,179395
2025-02-25 10:43:47.833,90393,15883,18553,4,85563,179407
2025-02-25 10:43:48.018,90399,15878,18548,4,85513,179315
2025-02-25 10:43:48.037,90370,15872,18553,5,85512,179311
2025-02-25 10:43:48.186,90360,15880,18563,4,85511,179293
2025-02-25 10:43:48.331,90290,15875,18547,4,85423,179083
2025-02-25 10:43:48.337,90370,15894,18572,3,85409,179071
2025-02-25 10:43:48.507,90310,15895,18564,4,85339,178907
2025-02-25 10:43:48.541,90264,15868,18534,4,85301,178885
2025-02-25 10:43:48.651,90197,15850,18518,2,85264,178787
2025-02-25 10:43:48.832,90262,15853,18525,3,85260,178789
2025-02-25 10:43:48.834,90216,15848,18517,5,85248,178738
2025-02-25 10:43:48.960,90206,15844,18516,3,85216,178726
2025-02-25 10:43:49.192,90202,15855,18538,3,85240,178815
2025-02-25 10:43:49.194,90220,15874,18559,4,85261,178873
2025-02-25 10:43:49.232,90167,15854,18526,6,85245,178833
2025-02-25 10:43:49.333,90212,15847,18528,5,85297,178955
2025-02-25 10:43:49.497,90318,15863,18566,6,85400,179192
2025-02-25 10:43:49.537,90319,15869,18577,6,85399,179202
2025-02-25 10:43:49.643,90303,15877,18592,4,85393,179178
2025-02-25 10:43:49.817,90304,15897,18611,4,85391,179160
2025-02-25 10:43:49.840,90337,15919,18640,6,85424,179256
2025-02-25 10:43:49.957,90341,15920,18638,3,85452,179338
2025-02-25 10:43:50.133,90379,15918,18644,5,85512,179440
2025-02-25 10:43:50.135,90369,15928,18665,5,85527,179483
2025-02-25 10:43:50.277,90355,15930,18661,6,85513,179460
2025-02-25 10:43:50.321,90427,15953,18699,4,85574,179607
2025-02-25 10:43:50.444,90421,15969,18724,4,85573,179595
2025-02-25 10:43:50.589,90379,15983,18743,4,85542,179544
2025-02-25 10:43:50.621,90366,15991,18748,6,85508,179500
2025-02-25 10:43:50.815,90436,15988,18750,4,85577,179667
2025-02-25 10:43:50.818,90492,15988,18773,6,85646,179834
2025-02-25 10:43:50.956,90548,15996,18806,3,85702,179975
2025-02-25 10:43:51.164,90591,15995,18822,5,85715,179965
2025-02-25 10:43:51.167,90582,15972,18807,3,85615,179705
2025-02-25 10:43:51.299,90400,15969,18769,3,85468,179321
2025-02-25 10:43:51.316,90133,15983,18693,6,85238,178875
2025-02-25 10:43:51.534,90135,16059,18740,5,85300,179028
2025-02-25 10:43:51.537,90243,16115,18793,7,85389,179219
2025-02-25 10:43:51.674,90119,16105,18699,2,85244,178944
2025-02-25 10:43:51.709,89840,16132,18676,1,85198,179062
2025-02-25 10:43:51.852,89907,16205,18706,1,85233,179309
2025-02-25 10:43:51.992,89951,16175,18622,5,84792,178833
2025-02-25 10:43:52.008,89698,16057,18503,4,83487,177092
2025-02-25 10:43:52.161,89285,16128,18577,4,82500,176022
2025-02-25 10:43:52.302,89015,16202,18614,4,81765,175296
2025-02-25 10:43:52.312,90027,16175,18628,4,80918,174722
2025-02-25 10:43:52.469,91105,16240,18942,4,80741,175207
2025-02-25 10:43:52.513,91524,16473,19417,6,81847,176266
2025-02-25 10:43:52.664,91462,16732,19820,8,82990,176709
2025-02-25 10:43:52.705,91099,16922,20007,6,83330,176544
2025-02-25 10:43:52.834,91070,17054,20083,4,83443,176322
2025-02-25 10:43:52.981,91291,17177,20175,4,83702,176466
2025-02-25 10:43:53.005,91592,17259,20227,5,83934,177019
2025-02-25 10:43:53.223,91250,17330,20289,2,83901,177398
2025-02-25 10:43:53.226,90972,17430,20392,4,84033,177482
2025-02-25 10:43:53.363,90773,17502,20458,4,84124,177095
2025-02-25 10:43:53.409,90612,17447,20274,7,83878,176619
2025-02-25 10:43:53.530,92293,17054,19853,4,82857,176617
2025-02-25 10:43:53.674,93930,16881,19904,5,82968,177738
2025-02-25 10:43:53.701,95307,16905,20172,2,83740,178842
2025-02-25 10:43:53.846,95539,17071,20617,6,84304,179075
2025-02-25 10:43:53.985,95142,17280,21040,3,84544,178333
2025-02-25 10:43:54.001,95135,17608,21609,6,83793,175992
2025-02-25 10:43:54.203,95615,18019,22233,3,83482,175023
2025-02-25 10:43:54.206,95532,18207,22352,6,83199,174472
2025-02-25 10:43:54.395,95590,18002,21975,5,82619,174198
2025-02-25 10:43:54.404,95859,17749,21640,9,82077,174615
2025-02-25 10:43:54.588,96138,17511,21351,6,81537,175009
2025-02-25 10:43:54.596,96458,17363,21175,4,81395,175420
2025-02-25 10:43:54.731,96683,17319,21104,7,81515,175789
2025-02-25 10:43:54.964,96871,17262,21042,4,81640,176115
2025-02-25 10:43:54.966,97181,17280,21102,5,81700,176558
2025-02-25 10:43:54.998,97472,17333,21217,7,81496,176921
2025-02-25 10:43:55.109,97817,17453,21436,6,81440,177309
2025-02-25 10:43:55.283,97840,17578,21661,4,81490,177281
2025-02-25 10:43:55.301,97715,17618,21725,8,81399,176985
2025-02-25 10:43:55.423,97682,17647,21756,6,81417,176875
2025-02-25 10:43:55.598,97581,17645,21730,3,81398,176734
2025-02-25 10:43:55.601,97549,17619,21680,4,81426,176737
2025-02-25 10:43:55.740,97437,17647,21732,2,81424,176597
2025-02-25 10:43:55.912,96967,17782,21949,2,81339,176249
2025-02-25 10:43:55.915,96270,17969,22184,5,81390,176049
2025-02-25 10:43:56.104,94612,17937,21970,4,81767,176248
2025-02-25 10:43:56.106,94817,18006,21846,5,81737,176162
2025-02-25 10:43:56.277,96641,18388,22425,4,82224,177569
2025-02-25 10:43:56.297,97903,18982,23483,4,83581,179522
2025-02-25 10:43:56.418,98322,19186,23819,4,84031,180224
2025-02-25 10:43:56.655,98634,19104,23647,6,83776,179733
2025-02-25 10:43:56.657,98739,18992,23431,4,83490,179319
2025-02-25 10:43:56.690,98765,18979,23414,4,83552,179664
2025-02-25 10:43:56.798,98733,18962,23430,6,83436,179911
2025-02-25 10:43:56.960,98657,18835,23235,6,83247,179978
2025-02-25 10:43:56.988,98658,18637,22930,6,83119,180154
2025-02-25 10:43:57.112,98968,18493,22708,5,83280,180894
2025-02-25 10:43:57.285,99524,18404,22595,4,83609,182460
2025-02-25 10:43:57.293,100219,18358,22597,7,84446,184534
2025-02-25 10:43:57.427,100627,18307,22639,4,85148,185859
2025-02-25 10:43:57.599,100826,18247,22666,4,85542,186772
2025-02-25 10:43:57.601,100970,18157,22633,5,86031,187685
2025-02-25 10:43:57.789,100969,18038,22569,6,86144,187940
2025-02-25 10:43:57.791,100923,17925,22483,5,86116,187913
2025-02-25 10:43:57.954,100961,17759,22292,3,86030,188141
2025-02-25 10:43:57.989,101358,17478,21951,3,86419,189164
2025-02-25 10:43:58.099,101831,17172,21589,4,87172,190652
2025-02-25 10:43:58.273,102289,17011,21422,4,87619,191364
2025-02-25 10:43:58.289,102719,16920,21421,4,87926,192018
2025-02-25 10:43:58.415,102973,16873,21513,7,87964,192227
2025-02-25 10:43:58.592,102936,16846,21604,7,87833,192179
2025-02-25 10:43:58.595,102865,16777,21627,4,87578,192075
2025-02-25 10:43:58.742,103146,16733,21741,3,87554,192226
2025-02-25 10:43:58.781,103501,16723,21904,2,87688,192461
2025-02-25 10:43:58.917,103658,16708,22034,4,87815,192614
2025-02-25 10:43:59.066,103629,16649,22047,4,87657,192281
2025-02-25 10:43:59.084,103585,16564,21973,4,87698,192331
2025-02-25 10:43:59.244,103718,16526,21964,8,87987,192843
2025-02-25 10:43:59.285,103595,16465,21933,4,87825,192732
2025-02-25 10:43:59.439,103623,16393,21907,2,87966,193035
2025-02-25 10:43:59.477,103978,16426,22046,3,88232,193451
2025-02-25 10:43:59.621,104144,16482,22246,4,88105,193151
2025-02-25 10:43:59.771,104006,16614,22567,3,87695,192295
2025-02-25 10:43:59.776,103748,16738,22795,3,87511,191899
2025-02-25 10:43:59.946,103479,16833,22935,5,87583,192010
2025-02-25 10:43:59.981,103227,16835,22942,3,87459,191797
2025-02-25 10:44:00.157,103230,16708,22727,6,87517,191828
2025-02-25 10:44:00.181,103344,16624,22604,4,87426,191574
2025-02-25 10:44:00.338,102991,16573,22508,5,86956,190830
2025-02-25 10:44:00.373,102704,16542,22448,3,86490,190129
2025-02-25 10:44:00.484,102487,16520,22388,2,86234,189745
2025-02-25 10:44:00.665,102301,16467,22291,5,86052,189483
2025-02-25 10:44:00.672,102180,16399,22179,3,85987,189373
2025-02-25 10:44:00.845,102205,16340,22107,6,85971,189280
2025-02-25 10:44:00.873,102221,16298,22054,8,86012,189290
2025-02-25 10:44:01.021,102177,16263,22019,6,86028,189263
2025-02-25 10:44:01.166,102111,16224,21981,5,86083,189336
2025-02-25 10:44:01.177,102061,16191,21935,4,86119,189427
2025-02-25 10:44:01.410,101942,16133,21846,6,86139,189482
2025-02-25 10:44:01.412,101887,16035,21695,8,86287,189697
2025-02-25 10:44:01.550,102006,15958,21609,7,86485,189957
2025-02-25 10:44:01.569,101962,15927,21587,4,86536,190057
2025-02-25 10:44:01.790,101987,15910,21577,3,86674,190269
2025-02-25 10:44:01.792,102127,15898,21613,7,86995,190714
2025-02-25 10:44:01.946,102130,15889,21641,6,87072,190792
2025-02-25 10:44:01.972,101945,15834,21574,2,86912,190524
2025-02-25 10:44:02.125,101761,15730,21427,4,86746,190237
2025-02-25 10:44:02.161,101658,15651,21340,6,86691,190125
2025-02-25 10:44:02.355,101599,15600,21294,2,86667,190048
2025-02-25 10:44:02.357,101516,15542,21234,6,86607,189938
2025-02-25 10:44:02.518,101451,15491,21195,7,86556,189840
2025-02-25 10:44:02.552,101396,15454,21167,5,86528,189799
2025-02-25 10:44:02.667,101331,15399,21087,5,86490,189718
2025-02-25 10:44:02.845,101016,15200,20777,8,86740,190160
2025-02-25 10:44:02.857,101610,15065,20508,4,89078,193981
2025-02-25 10:44:03.058,102801,15345,20799,5,91634,198704
2025-02-25 10:44:03.060,103128,15540,21123,4,92958,201210
2025-02-25 10:44:03.244,102910,15523,21185,4,92371,200622
2025-02-25 10:44:03.248,102549,15428,21106,8,91687,199548
2025-02-25 10:44:03.387,102433,15367,21092,9,91254,198799
2025-02-25 10:44:03.632,102298,15335,21115,4,90990,198358
2025-02-25 10:44:03.634,102480,15423,21329,3,90923,198228
2025-02-25 10:44:03.653,102442,15518,21544,6,90377,197339
2025-02-25 10:44:03.779,102158,15544,21594,6,89315,195648
2025-02-25 10:44:03.956,101667,15459,21400,6,88209,193921
2025-02-25 10:44:03.958,101546,15383,21252,6,88001,193564
2025-02-25 10:44:04.100,101614,15401,21277,4,88002,193524
2025-02-25 10:44:04.145,101540,15399,21250,4,87981,193436
2025-02-25 10:44:04.316,101622,15418,21271,5,88158,193659
2025-02-25 10:44:04.344,101807,15468,21350,2,88383,193962
2025-02-25 10:44:04.463,101905,15504,21384,4,88352,193853
2025-02-25 10:44:04.651,101958,15504,21304,3,88366,193836
2025-02-25 10:44:04.653,101228,15480,21091,5,87886,192962
2025-02-25 10:44:04.840,102347,15260,20311,5,91694,197823
2025-02-25 10:44:04.849,101719,14966,19633,3,93416,199368
2025-02-25 10:44:05.013,100941,14953,19513,5,92181,197212
2025-02-25 10:44:05.048,101694,16498,22253,6,90454,194740
2025-02-25 10:44:05.218,101486,18103,25089,5,91996,196929
2025-02-25 10:44:05.241,102324,18529,25604,2,92776,198234
2025-02-25 10:44:05.385,101844,18605,25610,5,92463,197591
2025-02-25 10:44:05.532,101664,18639,25590,4,92254,197190
2025-02-25 10:44:05.545,101611,18699,25622,4,92278,197208
2025-02-25 10:44:05.706,101500,18672,25489,7,91996,196732
2025-02-25 10:44:05.745,101216,18656,25396,6,91639,196104
2025-02-25 10:44:05.845,101240,18710,25415,4,91579,196003
2025-02-25 10:44:06.013,101470,18782,25486,1,91749,196331
2025-02-25 10:44:06.037,101794,18835,25492,6,92147,197083
2025-02-25 10:44:06.172,102015,18801,25376,5,92255,197305
2025-02-25 10:44:06.365,102044,18774,25322,7,92176,197173
2025-02-25 10:44:06.368,101884,18746,25257,5,91913,196696
2025-02-25 10:44:06.595,100898,18667,25055,5,91216,195397
2025-02-25 10:44:06.598,100324,18650,24908,5,90540,194222
2025-02-25 10:44:06.641,100141,18697,24876,8,90311,193840
2025-02-25 10:44:06.788,99844,18725,24830,5,90272,193741
2025-02-25 10:44:06.829,99720,18697,24697,6,90118,193466
2025-02-25 10:44:06.938,99486,18656,24565,6,89841,192989
2025-02-25 10:44:07.132,99420,18652,24503,4,89674,192721
2025-02-25 10:44:07.135,99494,18679,24508,8,89706,192824
2025-02-25 10:44:07.284,99348,18711,24536,7,89731,192858
2025-02-25 10:44:07.333,99399,18744,24553,4,89838,193034
2025-02-25 10:44:07.465,99678,18733,24488,5,90047,193411
2025-02-25 10:44:07.610,99503,18687,24399,8,90001,193313
2025-02-25 10:44:07.637,99554,18639,24279,3,89985,193290
2025-02-25 10:44:07.814,99735,18539,24054,6,89876,193187
2025-02-25 10:44:07.825,99830,18454,23899,4,89592,192866
2025-02-25 10:44:07.955,100027,18563,24134,4,89798,193183
2025-02-25 10:44:08.181,100110,18664,24296,4,90379,193986
2025-02-25 10:44:08.184,100247,18618,24202,5,90540,194263
2025-02-25 10:44:08.221,100250,18585,24138,4,90580,194351
2025-02-25 10:44:08.323,100148,18529,24024,5,90462,194137
2025-02-25 10:44:08.506,99999,18473,23916,7,90176,193651
2025-02-25 10:44:08.520,100257,18499,23983,6,90304,193916
2025-02-25 10:44:08.718,100030,18488,23951,6,90242,193809
2025-02-25 10:44:08.721,99962,18451,23874,2,90312,193864
2025-02-25 10:44:08.893,99806,18410,23788,6,90242,193697
2025-02-25 10:44:08.925,99558,18371,23679,4,90031,193277
2025-02-25 10:44:09.035,99544,18337,23591,4,89921,193080
2025-02-25 10:44:09.223,99839,18331,23572,4,89985,193218
2025-02-25 10:44:09.226,100026,18328,23570,2,90101,193387
2025-02-25 10:44:09.366,99795,18238,23382,5,90011,193206
2025-02-25 10:44:09.543,99680,18186,23296,4,89856,192908
2025-02-25 10:44:09.546,99485,18168,23263,6,89727,192676
2025-02-25 10:44:09.692,99401,18149,23221,5,89649,192525
2025-02-25 10:44:09.710,99564,18146,23216,6,89661,192549
2025-02-25 10:44:09.914,99515,18145,23236,6,89554,192362
2025-02-25 10:44:09.916,99101,18100,23138,7,89277,191818
2025-02-25 10:44:10.067,98892,18062,23057,4,89170,191588
2025-02-25 10:44:10.109,98755,18021,22974,4,89141,191502
2025-02-25 10:44:10.251,98778,17988,22907,4,89116,191470
2025-02-25 10:44:10.456,98960,17978,22895,8,89187,191607
2025-02-25 10:44:10.458,99174,17979,22925,6,89367,191896
2025-02-25 10:44:10.620,98968,17928,22841,8,89274,191627
2025-02-25 10:44:10.622,98756,17882,22755,6,89131,191286
2025-02-25 10:44:10.764,98634,17832,22661,7,89051,191156
2025-02-25 10:44:10.793,98561,17804,22609,2,88995,191091
2025-02-25 10:44:10.933,98772,17804,22627,4,89079,191270
2025-02-25 10:44:11.081,98735,17783,22635,2,88994,191173
2025-02-25 10:44:11.097,98539,17756,22583,4,88853,190928
2025-02-25 10:44:11.267,98328,17728,22549,6,88800,190816
2025-02-25 10:44:11.297,98354,17723,22547,5,88892,190962
2025-02-25 10:44:11.457,98192,17690,22486,6,88883,190918
2025-02-25 10:44:11.497,98212,17673,22447,1,88861,190912
2025-02-25 10:44:11.633,98394,17681,22476,6,88936,191036
2025-02-25 10:44:11.776,98430,17655,22442,5,88990,191039
2025-02-25 10:44:11.789,98090,17587,22312,7,88755,190581
2025-02-25 10:44:11.949,97833,17555,22221,4,88514,190174
2025-02-25 10:44:11.993,97683,17550,22185,4,88367,189976
2025-02-25 10:44:12.152,97762,17560,22191,5,88381,190062
2025-02-25 10:44:12.193,97931,17565,22201,5,88416,190183
2025-02-25 10:44:12.323,97836,17538,22160,5,88313,190026
2025-02-25 10:44:12.468,97687,17524,22127,7,88197,189838
2025-02-25 10:44:12.494,97679,17544,22185,6,88331,190065
2025-02-25 10:44:12.646,97688,17538,22176,6,88536,190408
2025-02-25 10:44:12.789,97909,17528,22163,5,88961,191202
2025-02-25 10:44:12.792,98249,17500,22163,2,89509,192258
2025-02-25 10:44:12.962,98574,17487,22201,3,89611,192364
2025-02-25 10:44:12.989,98380,17433,22123,5,89451,191996
2025-02-25 10:44:13.108,98101,17365,21990,6,89133,191477
2025-02-25 10:44:13.290,97802,17343,21945,5,88889,191096
2025-02-25 10:44:13.292,97933,17330,21933,4,88946,191263
2025-02-25 10:44:13.483,97993,17332,21950,6,88953,191303
2025-02-25 10:44:13.489,97910,17335,21976,6,88772,190953
2025-02-25 10:44:13.661,97729,17343,21966,6,88595,190646
2025-02-25 10:44:13.693,97532,17338,21934,7,88504,190499
2025-02-25 10:44:13.865,97607,17329,21913,6,88804,191041
2025-02-25 10:44:13.885,97914,17327,21885,6,89514,192427
2025-02-25 10:44:14.035,98244,17309,21915,7,90045,193454
2025-02-25 10:44:14.185,98371,17296,21968,4,90012,193309
2025-02-25 10:44:14.189,98057,17244,21866,5,89677,192675
2025-02-25 10:44:14.372,97932,17209,21791,9,89449,192302
2025-02-25 10:44:14.385,97727,17210,21772,5,89351,192170
2025-02-25 10:44:14.553,97916,17209,21769,3,89644,192773
2025-02-25 10:44:14.589,97955,17162,21750,2,89599,192737
2025-02-25 10:44:14.729,97805,17139,21736,1,89208,192060
2025-02-25 10:44:14.778,97596,17146,21702,3,88994,191661
2025-02-25 10:44:14.936,97456,17152,21694,8,88952,191571
2025-02-25 10:44:14.981,97512,17180,21703,5,89229,192059
2025-02-25 10:44:15.109,97530,17175,21683,5,89520,192603
2025-02-25 10:44:15.259,97705,17154,21687,5,89696,192937
2025-02-25 10:44:15.273,97872,17146,21728,5,89667,192843
2025-02-25 10:44:15.433,97595,17106,21631,4,89407,192347
2025-02-25 10:44:15.474,97598,17085,21573,6,89293,192137
2025-02-25 10:44:15.588,97378,17081,21563,3,89223,192030
2025-02-25 10:44:15.782,97576,17081,21565,8,89625,192754
2025-02-25 10:44:15.785,97653,17032,21537,1,89720,192906
2025-02-25 10:44:15.940,97669,16998,21529,4,89445,192436
2025-02-25 10:44:15.966,97481,16978,21491,4,89218,192063
2025-02-25 10:44:16.116,97361,16985,21478,6,89190,192020
2025-02-25 10:44:16.269,97377,16994,21481,2,89383,192363
2025-02-25 10:44:16.272,97424,16978,21453,1,89739,192977
2025-02-25 10:44:16.459,97729,16961,21481,4,90136,193622
2025-02-25 10:44:16.469,97894,16956,21538,4,90183,193662
2025-02-25 10:44:16.608,97543,16908,21453,7,89908,193113
2025-02-25 10:44:16.842,97530,16881,21397,5,89805,192921
2025-02-25 10:44:16.844,97210,16854,21321,12,89642,192650
2025-02-25 10:44:16.861,97420,16839,21298,5,90008,193335
2025-02-25 10:44:16.999,97596,16802,21290,8,90169,193600
2025-02-25 10:44:17.191,97558,16769,21292,5,89874,193068
2025-02-25 10:44:17.195,97276,16728,21225,5,89614,192645
2025-02-25 10:44:17.417,97183,16722,21200,5,89515,192508
2025-02-25 10:44:17.420,97187,16711,21158,6,89704,192846
2025-02-25 10:44:17.465,97399,16693,21136,8,90197,193704
2025-02-25 10:44:17.614,97691,16685,21180,6,90546,194306
2025-02-25 10:44:17.658,97964,16667,21239,4,90609,194422
2025-02-25 10:44:17.827,97587,16619,21122,4,90365,193913
2025-02-25 10:44:17.858,97619,16569,21028,4,90317,193873
2025-02-25 10:44:18.083,97532,16542,20979,8,90560,194361
2025-02-25 10:44:18.085,97834,16495,20946,5,90936,195101
2025-02-25 10:44:18.237,97877,16457,20933,5,90766,194813
2025-02-25 10:44:18.263,97894,16425,20933,4,90614,194545
2025-02-25 10:44:18.499,97574,16382,20858,4,90290,194009
2025-02-25 10:44:18.501,97556,16390,20850,7,90337,194119
2025-02-25 10:44:18.646,97534,16380,20822,6,90571,194505
2025-02-25 10:44:18.653,97741,16389,20852,7,91046,195326
2025-02-25 10:44:18.849,97964,16390,20885,6,91314,195786
2025-02-25 10:44:18.853,97980,16366,20891,5,91233,195599
2025-02-25 10:44:19.086,97586,16322,20789,5,90941,195039
2025-02-25 10:44:19.088,97569,16280,20708,4,90855,194889
2025-02-25 10:44:19.267,97417,16255,20651,6,90844,194914
2025-02-25 10:44:19.270,97604,16231,20638,6,91052,195290
2025-02-25 10:44:19.424,97642,16203,20631,6,90903,195044
2025-02-25 10:44:19.450,97548,16179,20601,3,90643,194609
2025-02-25 10:44:19.644,97324,16159,20568,3,90395,194155
2025-02-25 10:44:19.651,97237,16164,20551,6,90375,194151
2025-02-25 10:44:19.840,97235,16155,20509,3,90563,194486
2025-02-25 10:44:19.849,97545,16163,20534,6,91103,195471
2025-02-25 10:44:20.056,97719,16158,20579,3,91182,195659
2025-02-25 10:44:20.059,97828,16152,20603,1,91162,195618
2025-02-25 10:44:20.350,97530,16126,20527,4,90920,195146
2025-02-25 10:44:20.353,97444,16109,20490,5,90766,194912
2025-02-25 10:44:20.356,97316,16080,20435,3,90722,194862
2025-02-25 10:44:20.579,97537,16074,20420,1,91004,195404
2025-02-25 10:44:20.582,97696,16066,20444,2,91024,195453
2025-02-25 10:44:20.833,97592,16048,20439,8,90795,195076
2025-02-25 10:44:20.836,97432,16039,20409,6,90636,194817
2025-02-25 10:44:20.845,97373,16043,20394,3,90621,194829
2025-02-25 10:44:21.019,97422,16042,20374,5,90896,195335
2025-02-25 10:44:21.050,97802,16066,20437,4,91589,196642
2025-02-25 10:44:21.202,97882,16055,20475,4,91698,196873
2025-02-25 10:44:21.249,97914,16045,20461,3,91614,196702
2025-02-25 10:44:21.426,97649,16012,20391,3,91394,196287
2025-02-25 10:44:21.442,97618,15985,20345,5,91305,196165
2025-02-25 10:44:21.581,97473,15955,20314,5,91255,196133
2025-02-25 10:44:21.782,97742,15948,20325,6,91621,196811
2025-02-25 10:44:21.785,97837,15929,20328,6,91613,196816
2025-02-25 10:44:21.989,97763,15906,20319,4,91387,196474
2025-02-25 10:44:21.991,97688,15897,20302,4,91301,196341
2025-02-25 10:44:22.179,97555,15888,20281,5,91252,196274
2025-02-25 10:44:22.183,97611,15872,20257,3,91521,196743
2025-02-25 10:44:22.329,97933,15884,20318,6,92117,197797
2025-02-25 10:44:22.346,98084,15886,20372,4,92233,197965
2025-02-25 10:44:22.605,98103,15864,20359,6,92147,197797
2025-02-25 10:44:22.607,97847,15830,20291,11,91897,197313
2025-02-25 10:44:22.637,97642,15789,20233,4,91691,196976
2025-02-25 10:44:22.759,97609,15764,20210,3,91745,197101
2025-02-25 10:44:22.940,97878,15734,20201,4,92036,197605
2025-02-25 10:44:22.943,98099,15700,20186,2,91961,197513
2025-02-25 10:44:23.106,98081,15659,20173,5,91815,197367
2025-02-25 10:44:23.142,97970,15646,20151,4,91766,197315
2025-02-25 10:44:23.290,97917,15599,20091,6,91797,197327
2025-02-25 10:44:23.331,97965,15560,20058,6,92083,197807
2025-02-25 10:44:23.443,98174,15558,20138,5,92463,198503
2025-02-25 10:44:23.685,98339,15529,20156,6,92476,198560
2025-02-25 10:44:23.688,98288,15494,20132,2,92446,198431
2025-02-25 10:44:23.733,98091,15448,20075,3,92339,198210
2025-02-25 10:44:23.833,97887,15381,19990,3,92199,197977
2025-02-25 10:44:24.028,97915,15332,19958,4,92320,198294
2025-02-25 10:44:24.033,98043,15324,19983,4,92482,198661
2025-02-25 10:44:24.203,98151,15293,19982,2,92401,198529
2025-02-25 10:44:24.238,98084,15250,19968,2,92334,198352
2025-02-25 10:44:24.419,97787,15195,19877,5,92154,198023
2025-02-25 10:44:24.426,97747,15134,19786,4,92194,198117
2025-02-25 10:44:24.616,97869,15128,19821,5,92461,198759
2025-02-25 10:44:24.629,98049,15167,19916,5,92729,199293
2025-02-25 10:44:24.806,98199,15134,19900,3,92744,199314
2025-02-25 10:44:24.830,98067,15082,19831,2,92615,199092
2025-02-25 10:44:24.963,97968,15045,19774,6,92518,198881
2025-02-25 10:44:25.154,97733,14960,19661,3,92386,198657
2025-02-25 10:44:25.157,97813,14960,19677,6,92641,199093
2025-02-25 10:44:25.309,97974,15026,19783,3,92905,199494
2025-02-25 10:44:25.322,98002,14979,19760,5,92690,199173
2025-02-25 10:44:25.553,97755,14935,19704,7,92373,198702
2025-02-25 10:44:25.555,97575,14898,19630,4,92201,198415
2025-02-25 10:44:25.713,97641,14868,19599,4,92403,198730
2025-02-25 10:44:25.726,97879,14936,19706,7,92864,199498
2025-02-25 10:44:25.903,98094,14989,19797,5,93110,199933
2025-02-25 10:44:25.925,98220,14952,19768,3,93116,199986
2025-02-25 10:44:26.133,98111,14916,19704,5,93038,199845
2025-02-25 10:44:26.136,97945,14868,19611,5,92902,199621
2025-02-25 10:44:26.314,97704,14816,19530,6,92753,199381
2025-02-25 10:44:26.318,97850,14831,19553,3,92918,199710
2025-02-25 10:44:26.484,97899,14836,19577,9,92846,199620
2025-02-25 10:44:26.522,97998,14815,19570,7,92867,199712
2025-02-25 10:44:26.689,97745,14806,19577,6,92581,199287
2025-02-25 10:44:26.722,97663,14789,19550,5,92504,199163
2025-02-25 10:44:26.850,97658,14775,19545,8,92680,199474
2025-02-25 10:44:27.059,98016,14868,19701,4,93199,200530
2025-02-25 10:44:27.061,98309,14909,19800,7,93453,201067
2025-02-25 10:44:27.306,98263,14872,19757,6,93432,201007
2025-02-25 10:44:27.310,98072,14845,19692,5,93273,200707
2025-02-25 10:44:27.315,98072,14804,19638,6,93255,200701
2025-02-25 10:44:27.572,98066,14783,19624,4,93280,200881
2025-02-25 10:44:27.575,98226,14822,19701,7,93520,201433
2025-02-25 10:44:27.619,98429,14836,19742,5,93655,201741
2025-02-25 10:44:27.821,98331,14800,19706,6,93483,201450
2025-02-25 10:44:27.823,98033,14762,19637,3,93228,201010
2025-02-25 10:44:28.010,98084,14756,19624,3,93212,201000
2025-02-25 10:44:28.018,98113,14751,19643,2,93345,201370
2025-02-25 10:44:28.185,98351,14834,19776,4,93697,202101
2025-02-25 10:44:28.210,98543,14882,19882,3,93839,202367
2025-02-25 10:44:28.413,98456,14862,19856,3,93657,202063
2025-02-25 10:44:28.416,98173,14843,19814,4,93384,201592
2025-02-25 10:44:28.575,98113,14805,19749,10,93292,201485
2025-02-25 10:44:28.614,98076,14794,19713,4,93260,201491
2025-02-25 10:44:28.826,98261,14825,19774,4,93468,201838
2025-02-25 10:44:28.828,98407,14827,19802,8,93477,201897
2025-02-25 10:44:28.991,98192,14808,19770,5,93186,201428
2025-02-25 10:44:29.015,97890,14783,19713,5,92848,200906
2025-02-25 10:44:29.195,97968,14801,19723,5,92838,200939
2025-02-25 10:44:29.206,97969,14804,19732,5,92985,201213
2025-02-25 10:44:29.414,98288,14851,19800,5,93384,201966
2025-02-25 10:44:29.417,98416,14853,19813,5,93459,202103
2025-02-25 10:44:29.592,98460,14847,19805,4,93423,202036
2025-02-25 10:44:29.610,98226,14827,19756,6,93199,201632
2025-02-25 10:44:29.751,98111,14799,19696,4,93100,201498
2025-02-25 10:44:29.962,98113,14792,19681,3,93172,201663
2025-02-25 10:44:29.966,98146,14795,19680,5,93225,201781
2025-02-25 10:44:30.010,98269,14803,19695,3,93217,201818
2025-02-25 10:44:30.118,98392,14809,19726,6,93321,202054
2025-02-25 10:44:30.311,98132,14788,19677,6,93148,201803
2025-02-25 10:44:30.314,98171,14792,19651,6,93206,201915
2025-02-25 10:44:30.524,98230,14804,19661,3,93486,202433
2025-02-25 10:44:30.528,98487,14863,19780,5,93871,203224
2025-02-25 10:44:30.757,98732,14893,19854,6,94042,203566
2025-02-25 10:44:30.760,98587,14870,19830,5,93906,203270
2025-02-25 10:44:30.798,98299,14856,19757,2,93552,202677
2025-02-25 10:44:30.918,98164,14838,19698,6,93399,202486
2025-02-25 10:44:31.169,98193,14843,19699,3,93459,202811
2025-02-25 10:44:31.172,98361,14889,19764,2,93622,203267
2025-02-25 10:44:31.190,98455,14887,19764,2,93612,203253
2025-02-25 10:44:31.325,98481,14878,19769,6,93587,203134
2025-02-25 10:44:31.513,98298,14865,19741,4,93426,202834
2025-02-25 10:44:31.516,98261,14867,19718,4,93402,202840
2025-02-25 10:44:31.659,98339,14878,19734,1,93582,203359
2025-02-25 10:44:31.694,98589,14957,19860,5,93903,204033
2025-02-25 10:44:31.849,98788,14963,19884,6,93986,204188
2025-02-25 10:44:31.895,98689,14939,19846,3,93821,203907
2025-02-25 10:44:32.014,98436,14916,19793,4,93555,203488
2025-02-25 10:44:32.229,98340,14896,19749,5,93452,203353
2025-02-25 10:44:32.232,98437,14914,19781,5,93619,203618
2025-02-25 10:44:32.438,98513,14942,19824,2,93714,203751
2025-02-25 10:44:32.441,98604,14929,19831,5,93627,203647
2025-02-25 10:44:32.486,98428,14897,19773,2,93357,203257
2025-02-25 10:44:32.620,98296,14888,19746,3,93171,203003
2025-02-25 10:44:32.772,98223,14881,19715,10,93150,202980
2025-02-25 10:44:32.790,98356,14907,19755,7,93461,203477
2025-02-25 10:44:32.960,98724,14976,19878,1,93890,204192
2025-02-25 10:44:32.978,98717,14951,19865,5,93855,204140
2025-02-25 10:44:33.111,98523,14923,19797,4,93656,203807
2025-02-25 10:44:33.289,98518,14907,19765,5,93584,203673
2025-02-25 10:44:33.292,98223,14874,19701,4,93343,203296
2025-02-25 10:44:33.454,98377,14894,19725,7,93580,203732
2025-02-25 10:44:33.482,98565,14914,19777,7,93723,204017
2025-02-25 10:44:33.645,98713,14902,19790,6,93787,204207
2025-02-25 10:44:33.682,98474,14868,19738,5,93598,203917
2025-02-25 10:44:33.806,98335,14866,19718,4,93450,203651
2025-02-25 10:44:34.046,98163,14853,19688,4,93406,203594
2025-02-25 10:44:34.049,98366,14897,19744,3,93707,204197
2025-02-25 10:44:34.078,98475,14924,19791,4,93826,204479
2025-02-25 10:44:34.208,98520,14889,19773,2,93787,204389
2025-02-25 10:44:34.400,98253,14860,19708,3,93562,203951
2025-02-25 10:44:34.402,98280,14860,19707,5,93578,204005
2025-02-25 10:44:34.624,98116,14866,19707,6,93591,204057
2025-02-25 10:44:34.627,98313,14905,19743,4,93878,204482
2025-02-25 10:44:34.852,98481,14906,19754,6,93932,204559
2025-02-25 10:44:34.855,98356,14854,19701,8,93643,204128
2025-02-25 10:44:34.883,98146,14820,19649,6,93383,203768
2025-02-25 10:44:35.010,98209,14816,19630,8,93423,203870
2025-02-25 10:44:35.198,98189,14811,19603,5,93682,204284
2025-02-25 10:44:35.200,98470,14883,19693,5,94201,205028
2025-02-25 10:44:35.351,98639,14895,19738,4,94329,205183
2025-02-25 10:44:35.375,98586,14851,19689,6,94208,204951
2025-02-25 10:44:35.571,98361,14821,19627,7,93995,204521
2025-02-25 10:44:35.575,98371,14832,19647,5,93998,204518
2025-02-25 10:44:35.730,98267,14864,19683,5,94000,204583
2025-02-25 10:44:35.766,98279,14874,19664,4,93968,204469
2025-02-25 10:44:36.009,98392,14826,19618,6,93933,204430
2025-02-25 10:44:36.011,98173,14768,19555,6,93618,203930
2025-02-25 10:44:36.167,98123,14753,19530,4,93492,203771
2025-02-25 10:44:36.171,98196,14744,19516,4,93554,203908
2025-02-25 10:44:36.461,98132,14732,19484,7,93650,204089
2025-02-25 10:44:36.464,98323,14768,19535,4,93919,204540
2025-02-25 10:44:36.467,98618,14779,19590,3,94151,204928
2025-02-25 10:44:36.726,98428,14728,19514,3,93980,204670
2025-02-25 10:44:36.729,98338,14714,19480,5,93865,204414
2025-02-25 10:44:36.751,98234,14694,19474,3,93740,204245
2025-02-25 10:44:36.972,98108,14696,19464,5,93716,204239
2025-02-25 10:44:36.975,98278,14706,19468,4,93908,204562
2025-02-25 10:44:37.142,98355,14681,19445,5,93879,204554
2025-02-25 10:44:37.154,98329,14641,19390,8,93803,204527
2025-02-25 10:44:37.355,98177,14616,19359,7,93568,204194
2025-02-25 10:44:37.358,98196,14617,19369,4,93635,204341
2025-02-25 10:44:37.567,98202,14653,19406,5,93922,204855
2025-02-25 10:44:37.569,98582,14771,19571,6,94454,205791
2025-02-25 10:44:37.752,98945,14794,19620,7,94707,206282
2025-02-25 10:44:37.755,99235,14755,19561,2,94937,206780
2025-02-25 10:44:37.909,99270,14743,19545,6,95044,206970
2025-02-25 10:44:37.938,99196,14735,19545,5,94944,206846
2025-02-25 10:44:38.158,99023,14728,19531,5,94877,206870
2025-02-25 10:44:38.160,99222,14752,19551,9,95104,207300
2025-02-25 10:44:38.394,99366,14743,19560,12,95106,207302
2025-02-25 10:44:38.399,99071,14688,19524,6,94723,206653
2025-02-25 10:44:38.647,98872,14687,19523,6,94550,206391
2025-02-25 10:44:38.652,98973,14703,19550,5,94634,206549
2025-02-25 10:44:38.655,98916,14714,19565,8,94725,206773
2025-02-25 10:44:38.895,99336,14788,19653,5,95131,207556
2025-02-25 10:44:38.902,99655,14771,19641,5,95411,208093
2025-02-25 10:44:38.935,99097,14753,19653,4,95064,207468
2025-02-25 10:44:39.190,98393,14745,19622,4,94375,206057
2025-02-25 10:44:39.193,98172,14763,19633,7,94303,205863
2025-02-25 10:44:39.351,98062,14795,19669,5,94403,206134
2025-02-25 10:44:39.353,98172,14882,19777,5,94425,206107
2025-02-25 10:44:39.730,98341,14890,19805,5,94357,206039
2025-02-25 10:44:39.734,98203,14859,19767,7,94060,205655
2025-02-25 10:44:39.739,98183,14854,19713,6,94000,205582
2025-02-25 10:44:39.744,98198,14863,19732,4,94049,205645
2025-02-25 10:44:40.019,98310,14942,19853,4,94236,205834
2025-02-25 10:44:40.022,98402,14995,19929,4,94309,205940
2025-02-25 10:44:40.031,98287,14949,19862,6,94110,205603
2025-02-25 10:44:40.218,98114,14909,19779,5,93879,205198
2025-02-25 10:44:40.235,97792,14886,19722,5,93528,204528
2025-02-25 10:44:40.381,97741,14899,19721,6,93487,204492
2025-02-25 10:44:40.578,97992,14987,19841,3,93748,205157
2025-02-25 10:44:40.581,98159,15083,19978,3,93876,205475
2025-02-25 10:44:40.627,98001,15028,19894,5,93653,205085
2025-02-25 10:44:40.738,97802,14993,19829,5,93405,204583
2025-02-25 10:44:40.984,97822,14990,19834,5,93303,204412
2025-02-25 10:44:40.986,97945,15005,19858,8,93379,204629
2025-02-25 10:44:41.026,97992,15039,19920,5,93577,205094
2025-02-25 10:44:41.138,98410,15134,20058,5,94053,205962
2025-02-25 10:44:41.324,98422,15112,20046,7,94070,205978
2025-02-25 10:44:41.331,98098,15072,19943,4,93786,205474
2025-02-25 10:44:41.484,97985,15062,19923,3,93563,205058
2025-02-25 10:44:41.531,97842,15068,19921,5,93437,204863
2025-02-25 10:44:41.671,97982,15119,19993,5,93670,205350
2025-02-25 10:44:41.826,98009,15187,20051,5,93764,205489
2025-02-25 10:44:41.829,97907,15159,20009,6,93530,205072
2025-02-25 10:44:42.020,97790,15134,19968,8,93302,204761
2025-02-25 10:44:42.023,98042,15144,19994,4,93440,205087
2025-02-25 10:44:42.175,98101,15149,20009,4,93574,205363
2025-02-25 10:44:42.360,98152,15171,20030,5,93780,205729
2025-02-25 10:44:42.362,98410,15225,20130,5,94107,206272
2025-02-25 10:44:42.521,98373,15202,20114,5,94022,206142
2025-02-25 10:44:42.527,98148,15182,20074,4,93834,205759
2025-02-25 10:44:42.751,97942,15164,20013,5,93586,205202
2025-02-25 10:44:42.754,97816,15156,19990,6,93424,204943
2025-02-25 10:44:42.904,97957,15186,20026,8,93573,205261
2025-02-25 10:44:42.918,98206,15214,20083,5,93718,205556
2025-02-25 10:44:43.099,98237,15180,20062,7,93658,205506
2025-02-25 10:44:43.123,98034,15156,20037,6,93471,205225
2025-02-25 10:44:43.319,97973,15157,20032,3,93418,205136
2025-02-25 10:44:43.322,98074,15150,20012,3,93568,205376
2025-02-25 10:44:43.497,98124,15158,20027,9,93691,205597
2025-02-25 10:44:43.523,98338,15204,20105,9,93932,206010
2025-02-25 10:44:43.646,98458,15183,20101,7,93941,206017
2025-02-25 10:44:43.822,98221,15144,20038,8,93706,205617
2025-02-25 10:44:43.825,98009,15109,19973,4,93464,205180
2025-02-25 10:44:43.986,97894,15096,19933,8,93414,205108
2025-02-25 10:44:44.015,98115,15166,20025,5,93685,205606
2025-02-25 10:44:44.171,98217,15208,20095,4,93713,205687
2025-02-25 10:44:44.219,98181,15163,20060,5,93558,205418
2025-02-25 10:44:44.374,98010,15138,20033,6,93373,205118
2025-02-25 10:44:44.419,97953,15127,20006,6,93300,205010
2025-02-25 10:44:44.565,97958,15111,19975,8,93415,205212
2025-02-25 10:44:44.610,98232,15177,20081,6,93699,205857
2025-02-25 10:44:44.714,98477,15224,20175,3,93868,206243
2025-02-25 10:44:44.938,98442,15185,20139,5,93792,206089
2025-02-25 10:44:44.943,98211,15150,20077,4,93602,205687
2025-02-25 10:44:45.178,98126,15127,20038,4,93455,205453
2025-02-25 10:44:45.180,97891,15116,20011,8,93286,205283
2025-02-25 10:44:45.217,98129,15159,20061,6,93422,205619
2025-02-25 10:44:45.362,98341,15166,20102,6,93498,205785
2025-02-25 10:44:45.403,98467,15125,20075,4,93519,205872
2025-02-25 10:44:45.515,98386,15111,20061,5,93512,205854
2025-02-25 10:44:45.702,98383,15101,20044,4,93548,205951
2025-02-25 10:44:45.707,98361,15097,20040,5,93631,206182
2025-02-25 10:44:45.858,98557,15151,20127,5,93816,206569
2025-02-25 10:44:46.125,98564,15134,20119,5,93744,206468
2025-02-25 10:44:46.129,98580,15108,20098,5,93718,206421
2025-02-25 10:44:46.133,98340,15089,20068,2,93500,205989
2025-02-25 10:44:46.409,98185,15079,20053,5,93327,205715
2025-02-25 10:44:46.412,98056,15087,20040,3,93255,205637
2025-02-25 10:44:46.415,98283,15136,20110,2,93471,206032
2025-02-25 10:44:46.598,98403,15136,20128,4,93457,206043
2025-02-25 10:44:46.603,98357,15095,20096,6,93334,205876
2025-02-25 10:44:46.823,98189,15073,20050,8,93178,205605
2025-02-25 10:44:46.825,98274,15063,20031,6,93255,205775
2025-02-25 10:44:47.001,98285,15078,20059,7,93439,206159
2025-02-25 10:44:47.004,98568,15124,20145,4,93727,206627
2025-02-25 10:44:47.151,98756,15117,20167,8,93847,206817
2025-02-25 10:44:47.326,98533,15071,20103,6,93638,206483
2025-02-25 10:44:47.329,98239,15051,20061,5,93263,205780
2025-02-25 10:44:47.479,98075,15054,20050,8,93049,205391
2025-02-25 10:44:47.499,98104,15109,20102,4,93159,205549
2025-02-25 10:44:47.670,98371,15163,20190,4,93379,205930
2025-02-25 10:44:47.700,98433,15127,20170,5,93350,205924
2025-02-25 10:44:47.880,98246,15086,20119,3,93139,205655
2025-02-25 10:44:47.899,98214,15077,20101,4,93037,205546
2025-02-25 10:44:48.059,98229,15081,20109,3,93107,205653
2025-02-25 10:44:48.101,98232,15148,20187,4,93155,205760
2025-02-25 10:44:48.243,98574,15230,20320,4,93558,206417
2025-02-25 10:44:48.489,98696,15203,20307,4,93608,206458
2025-02-25 10:44:48.492,98339,15159,20229,4,93280,205889
2025-02-25 10:44:48.496,98317,15151,20202,5,93145,205610
2025-02-25 10:44:48.641,98179,15165,20221,4,93077,205467
2025-02-25 10:44:48.849,98426,15224,20305,5,93326,205902
2025-02-25 10:44:48.851,98514,15244,20343,3,93407,206075
2025-02-25 10:44:48.896,98517,15199,20302,4,93318,206021
2025-02-25 10:44:49.007,98461,15183,20279,7,93231,205941
2025-02-25 10:44:49.193,98436,15181,20266,6,93174,205875
2025-02-25 10:44:49.200,98432,15177,20269,8,93221,205925
2025-02-25 10:44:49.359,98521,15192,20311,5,93295,206031
2025-02-25 10:44:49.400,98736,15231,20380,4,93523,206439
2025-02-25 10:44:49.648,98792,15210,20370,3,93525,206441
2025-02-25 10:44:49.650,98509,15161,20286,5,93271,205966
2025-02-25 10:44:49.692,98393,15131,20240,5,93071,205620
2025-02-25 10:44:49.807,98254,15147,20236,7,93031,205557
2025-02-25 10:44:50.013,98486,15196,20308,5,93235,205915
2025-02-25 10:44:50.016,98565,15195,20318,10,93240,205973
2025-02-25 10:44:50.156,98505,15153,20265,4,93125,205847
2025-02-25 10:44:50.196,98455,15130,20262,6,93039,205741
2025-02-25 10:44:50.353,98498,15131,20263,6,93060,205800
2025-02-25 10:44:50.383,98449,15128,20264,7,93161,205975
2025-02-25 10:44:50.517,98707,15215,20393,5,93523,206625
2025-02-25 10:44:50.715,99004,15281,20495,8,93809,207137
2025-02-25 10:44:50.718,98945,15233,20433,4,93778,207083
2025-02-25 10:44:50.885,98749,15206,20361,6,93589,206647
2025-02-25 10:44:50.888,98674,15197,20347,5,93411,206357
2025-02-25 10:44:51.109,98591,15214,20382,5,93408,206433
2025-02-25 10:44:51.112,98888,15291,20485,5,93672,206989
2025-02-25 10:44:51.324,99029,15306,20530,3,93716,207080
2025-02-25 10:44:51.327,98932,15264,20483,2,93589,206875
2025-02-25 10:44:51.538,98723,15215,20396,4,93466,206654
2025-02-25 10:44:51.540,98835,15192,20374,6,93490,206697
2025-02-25 10:44:51.584,98762,15191,20370,5,93464,206718
2025-02-25 10:44:51.683,98992,15257,20470,8,93715,207212
2025-02-25 10:44:51.942,99310,15312,20584,3,93997,207734
2025-02-25 10:44:51.944,99163,15254,20498,7,93844,207478
2025-02-25 10:44:51.975,99078,15224,20431,9,93741,207256
2025-02-25 10:44:52.088,98849,15190,20362,5,93530,206856
2025-02-25 10:44:52.280,98856,15229,20407,5,93590,207002
2025-02-25 10:44:52.283,99184,15347,20571,3,93910,207643
2025-02-25 10:44:52.442,99373,15368,20610,8,94023,207903
2025-02-25 10:44:52.468,99247,15322,20558,5,93879,207697
2025-02-25 10:44:52.628,99006,15301,20517,6,93664,207293
2025-02-25 10:44:52.669,98977,15289,20491,5,93588,207139
2025-02-25 10:44:52.787,98908,15295,20490,4,93561,207101
2025-02-25 10:44:52.975,99060,15346,20544,9,93695,207375
2025-02-25 10:44:52.978,99266,15333,20554,5,93813,207575
2025-02-25 10:44:53.199,99081,15278,20466,5,93659,207319
2025-02-25 10:44:53.201,99002,15256,20431,5,93546,207105
2025-02-25 10:44:53.378,98738,15238,20362,4,93366,206756
2025-02-25 10:44:53.381,98855,15272,20394,2,93508,207070
2025-02-25 10:44:53.596,98962,15337,20470,4,93549,207205
2025-02-25 10:44:53.599,99097,15294,20430,6,93564,207290
2025-02-25 10:44:53.783,99059,15260,20382,5,93517,207262
2025-02-25 10:44:53.786,99028,15250,20342,3,93475,207179
2025-02-25 10:44:53.934,98870,15229,20292,4,93394,207032
2025-02-25 10:44:53.968,99029,15274,20344,9,93535,207343
2025-02-25 10:44:54.126,99129,15302,20379,6,93587,207511
2025-02-25 10:44:54.169,99211,15263,20330,5,93607,207557
2025-02-25 10:44:54.280,99054,15243,20300,5,93493,207286
2025-02-25 10:44:54.473,98951,15258,20317,6,93354,207018
2025-02-25 10:44:54.475,98504,15264,20239,7,93109,206661
2025-02-25 10:44:54.630,98757,15285,20173,4,93242,207066
2025-02-25 10:44:54.660,98904,15297,20174,6,93191,207064
2025-02-25 10:44:54.892,99162,15296,20218,4,93325,207378
2025-02-25 10:44:54.894,98996,15295,20221,5,93297,207316
2025-02-25 10:44:55.085,99142,15289,20219,4,93449,207605
2025-02-25 10:44:55.089,98997,15278,20212,6,93381,207474
2025-02-25 10:44:55.313,99061,15302,20233,7,93403,207499
2025-02-25 10:44:55.316,99160,15283,20226,7,93396,207530
2025-02-25 10:44:55.356,99200,15256,20212,5,93463,207697
2025-02-25 10:44:55.554,98917,15245,20193,6,93213,207143
2025-02-25 10:44:55.557,98734,15249,20192,3,92978,206723
2025-02-25 10:44:55.757,98562,15263,20184,4,92820,206463
2025-02-25 10:44:55.760,98668,15334,20215,7,92957,206729
2025-02-25 10:44:55.915,98802,15332,20208,4,92993,206845
2025-02-25 10:44:55.961,98693,15275,20132,4,92821,206622
2025-02-25 10:44:56.110,98626,15254,20092,3,92774,206565
2025-02-25 10:44:56.148,98631,15256,20091,6,92747,206521
2025-02-25 10:44:56.297,98612,15289,20138,3,92788,206618
2025-02-25 10:44:56.505,98703,15363,20209,2,92951,206907
2025-02-25 10:44:56.508,98903,15369,20228,4,93058,207107
2025-02-25 10:44:56.552,98864,15338,20183,6,92998,207010
2025-02-25 10:44:56.755,98864,15345,20188,4,92947,206942
2025-02-25 10:44:56.759,98654,15341,20163,6,92773,206631
2025-02-25 10:44:56.970,98695,15383,20214,4,92843,206792
2025-02-25 10:44:56.974,98782,15453,20284,5,92968,207015
2025-02-25 10:44:57.223,98826,15426,20255,5,92919,206959
2025-02-25 10:44:57.226,98701,15398,20238,6,92738,206664
2025-02-25 10:44:57.249,98568,15373,20200,5,92585,206395
2025-02-25 10:44:57.410,98701,15351,20154,6,92759,206751
2025-02-25 10:44:57.448,98695,15370,20217,4,92825,206835
2025-02-25 10:44:57.610,98775,15437,20331,7,92921,206962
2025-02-25 10:44:57.649,98824,15438,20337,4,92909,206938
2025-02-25 10:44:57.818,98577,15367,20223,2,92636,206478
2025-02-25 10:44:57.852,98426,15355,20211,9,92482,206134
2025-02-25 10:44:57.968,98401,15338,20198,5,92406,206039
2025-02-25 10:44:58.164,98496,15388,20269,4,92577,206325
2025-02-25 10:44:58.167,98685,15445,20368,4,92729,206589
2025-02-25 10:44:58.396,98546,15390,20282,7,92528,206275
2025-02-25 10:44:58.400,98437,15344,20226,4,92329,206037
2025-02-25 10:44:58.445,98311,15323,20200,4,92132,205708
2025-02-25 10:44:58.625,98446,15332,20223,5,92245,205908
2025-02-25 10:44:58.644,98456,15394,20305,4,92422,206168
2025-02-25 10:44:58.785,98634,15486,20415,6,92610,206521
2025-02-25 10:44:58.999,98692,15476,20381,7,92579,206470
2025-02-25 10:44:59.002,98644,15420,20292,5,92562,206506
2025-02-25 10:44:59.036,98563,15396,20262,6,92418,206204
2025-02-25 10:44:59.150,98337,15408,20275,3,92247,205861
2025-02-25 10:44:59.368,98503,15473,20361,1,92420,206170
2025-02-25 10:44:59.371,98782,15564,20496,4,92658,206566
2025-02-25 10:44:59.542,98819,15528,20466,4,92655,206595
2025-02-25 10:44:59.547,98687,15486,20417,4,92525,206408
2025-02-25 10:44:59.767,98563,15459,20388,4,92369,206090
2025-02-25 10:44:59.770,98491,15457,20397,5,92358,206013
2025-02-25 10:45:00.007,98573,15510,20462,7,92484,206178
2025-02-25 10:45:00.010,98764,15561,20544,5,92639,206440
2025-02-25 10:45:00.025,98864,15536,20535,4,92691,206534
2025-02-25 10:45:00.224,98422,15493,20440,3,92404,206029
2025-02-25 10:45:00.227,98421,15515,20466,6,92288,205759
2025-02-25 10:45:00.410,98294,15530,20467,5,92253,205657
2025-02-25 10:45:00.425,98431,15573,20528,5,92423,205967
2025-02-25 10:45:00.761,98550,15598,20565,6,92449,206021
2025-02-25 10:45:00.764,98514,15555,20513,5,92253,205758
2025-02-25 10:45:00.766,98450,15537,20476,8,92153,205724
2025-02-25 10:45:00.930,98541,15531,20462,6,92208,205887
2025-02-25 10:45:00.933,98598,15523,20466,3,92339,206071
2025-02-25 10:45:01.118,98850,15580,20556,7,92678,206600
2025-02-25 10:45:01.120,98873,15613,20630,5,92710,206618
2025-02-25 10:45:01.270,98705,15576,20564,5,92520,206206
2025-02-25 10:45:01.455,98439,15578,20552,5,92328,205726
2025-02-25 10:45:01.458,98342,15600,20552,6,92212,205455
2025-02-25 10:45:01.611,98327,15614,20554,3,92293,205585
2025-02-25 10:45:01.625,98581,15671,20632,7,92534,205937
2025-02-25 10:45:01.852,98685,15664,20647,5,92508,205967
2025-02-25 10:45:01.855,98587,15626,20603,3,92295,205731
2025-02-25 10:45:02.004,98493,15621,20585,7,92127,205478
2025-02-25 10:45:02.017,98491,15614,20575,4,92143,205522
2025-02-25 10:45:02.282,98515,15607,20561,7,92273,205681
2025-02-25 10:45:02.284,98755,15644,20624,7,92579,206100
2025-02-25 10:45:02.317,98892,15647,20647,5,92660,206257
2025-02-25 10:45:02.424,98958,15617,20618,3,92659,206270
2025-02-25 10:45:02.616,98701,15601,20581,3,92419,205803
2025-02-25 10:45:02.621,98582,15601,20576,8,92296,205510
2025-02-25 10:45:02.774,98420,15598,20544,6,92311,205388
2025-02-25 10:45:02.822,98568,15635,20596,5,92452,205569
2025-02-25 10:45:02.956,98728,15636,20620,7,92467,205638
2025-02-25 10:45:03.110,98612,15581,20567,5,92256,205395
2025-02-25 10:45:03.113,98486,15571,20542,7,92133,205232
2025-02-25 10:45:03.360,98590,15567,20534,4,92233,205378
2025-02-25 10:45:03.362,98513,15580,20543,6,92385,205564
2025-02-25 10:45:03.506,98849,15641,20647,7,92685,206152
2025-02-25 10:45:03.513,98960,15638,20670,4,92732,206210
2025-02-25 10:45:03.721,98769,15577,20580,6,92576,205874
2025-02-25 10:45:03.724,98559,15580,20569,5,92329,205318
2025-02-25 10:45:03.902,98415,15578,20556,3,92177,205027
2025-02-25 10:45:03.909,98340,15594,20548,4,92155,204995
2025-02-25 10:45:04.216,98559,15635,20611,5,92377,205372
2025-02-25 10:45:04.219,98759,15599,20612,4,92437,205513
2025-02-25 10:45:04.222,98544,15545,20543,5,92180,205072
2025-02-25 10:45:04.396,98438,15524,20522,7,92038,204787
2025-02-25 10:45:04.409,98541,15515,20533,4,92094,204864
2025-02-25 10:45:04.591,98427,15534,20543,5,92175,204906
2025-02-25 10:45:04.614,98645,15584,20622,5,92418,205302
2025-02-25 10:45:04.768,98756,15537,20591,9,92460,205326
2025-02-25 10:45:04.801,98467,15469,20508,4,92174,204800
2025-02-25 10:45:04.961,98414,15488,20528,5,92097,204506
2025-02-25 10:45:05.005,98261,15479,20505,5,91981,204239
2025-02-25 10:45:05.179,98289,15531,20571,7,92085,204404
2025-02-25 10:45:05.206,98423,15585,20642,7,92222,204650
2025-02-25 10:45:05.384,98383,15497,20560,8,91968,204221
2025-02-25 10:45:05.405,98247,15451,20525,5,91766,203921
2025-02-25 10:45:05.541,98117,15416,20483,5,91657,203618
2025-02-25 10:45:05.802,98184,15407,20477,3,91769,203767
2025-02-25 10:45:05.805,98334,15458,20549,3,92002,204164
2025-02-25 10:45:05.807,98438,15489,20607,2,92115,204383
2025-02-25 10:45:05.953,98496,15403,20552,2,92087,204278
2025-02-25 10:45:06.002,98278,15335,20471,4,91895,203824
2025-02-25 10:45:06.216,98187,15327,20451,5,91807,203576
2025-02-25 10:45:06.219,97983,15326,20411,6,91720,203362
2025-02-25 10:45:06.421,98188,15415,20528,5,91924,203767
2025-02-25 10:45:06.426,98301,15470,20611,8,91986,203891
2025-02-25 10:45:06.634,98253,15375,20533,4,91815,203563
2025-02-25 10:45:06.637,98072,15294,20447,6,91633,203175
2025-02-25 10:45:06.802,98012,15258,20419,5,91545,202945
2025-02-25 10:45:06.805,97957,15236,20399,4,91525,202858
2025-02-25 10:45:07.081,98104,15308,20490,5,91727,203214
2025-02-25 10:45:07.083,98471,15388,20616,8,92080,203902
2025-02-25 10:45:07.098,98318,15293,20525,4,91951,203633
2025-02-25 10:45:07.244,98112,15224,20455,5,91763,203116
2025-02-25 10:45:07.442,98019,15217,20437,8,91629,202814
2025-02-25 10:45:07.445,97921,15251,20471,5,91565,202704
2025-02-25 10:45:07.614,98191,15349,20608,5,91836,203164
2025-02-25 10:45:07.618,98263,15391,20670,4,91823,203130
2025-02-25 10:45:07.822,98055,15325,20585,5,91521,202603
2025-02-25 10:45:07.825,97777,15244,20484,2,91184,201923
2025-02-25 10:45:08.002,97917,15222,20452,6,91268,202012
2025-02-25 10:45:08.005,97901,15214,20457,6,91313,202050
2025-02-25 10:45:08.213,98118,15269,20563,7,91525,202450
2025-02-25 10:45:08.216,98309,15287,20619,4,91649,202649
2025-02-25 10:45:08.379,98056,15219,20531,7,91422,202230
2025-02-25 10:45:08.395,97848,15163,20440,3,91201,201740
2025-02-25 10:45:08.770,97859,15130,20367,4,91087,201472
2025-02-25 10:45:08.774,97820,15169,20422,3,91097,201475
2025-02-25 10:45:08.779,97913,15253,20526,3,91204,201680
2025-02-25 10:45:08.787,98099,15283,20580,5,91261,201791
2025-02-25 10:45:08.960,97994,15230,20521,6,91073,201504
2025-02-25 10:45:08.990,97914,15175,20464,7,90961,201291
2025-02-25 10:45:09.284,97981,15130,20428,5,90965,201293
2025-02-25 10:45:09.286,98084,15146,20467,4,91136,201650
2025-02-25 10:45:09.289,98367,15247,20625,7,91424,202235
2025-02-25 10:45:09.442,98457,15249,20656,15,91463,202281
2025-02-25 10:45:09.491,98266,15215,20608,8,91246,201828
2025-02-25 10:45:09.635,97964,15201,20573,6,91057,201358
2025-02-25 10:45:09.682,97892,15172,20529,4,90945,201102
2025-02-25 10:45:09.792,97879,15196,20563,4,90917,201094
2025-02-25 10:45:09.973,98009,15252,20630,4,90979,201191
2025-02-25 10:45:09.986,98046,15232,20609,1,90904,201077
2025-02-25 10:45:10.128,97995,15198,20569,8,90710,200830
2025-02-25 10:45:10.174,97770,15166,20528,6,90521,200411
2025-02-25 10:45:10.382,97726,15123,20476,4,90504,200309
2025-02-25 10:45:10.385,97760,15150,20514,6,90627,200523
2025-02-25 10:45:10.529,98125,15252,20677,4,90989,201258
2025-02-25 10:45:10.566,98336,15268,20736,3,91093,201426
2025-02-25 10:45:10.723,98246,15230,20677,2,90924,201088
2025-02-25 10:45:10.770,98024,15260,20701,5,90826,200785
2025-02-25 10:45:10.934,97825,15248,20654,7,90686,200471
2025-02-25 10:45:10.970,97748,15270,20676,5,90692,200540
2025-02-25 10:45:11.124,97855,15397,20833,5,90831,200809
2025-02-25 10:45:11.170,97727,15408,20797,5,90536,200157
2025-02-25 10:45:11.272,97374,15342,20712,4,90105,199415
2025-02-25 10:45:11.456,97328,15372,20739,5,90052,199265
2025-02-25 10:45:11.475,97461,15394,20764,3,90221,199589
2025-02-25 10:45:11.606,97453,15409,20773,6,90351,199785
2025-02-25 10:45:11.792,97664,15464,20859,8,90549,200117
2025-02-25 10:45:11.795,97794,15460,20861,4,90564,200148
2025-02-25 10:45:11.951,97730,15416,20805,5,90434,199917
2025-02-25 10:45:11.967,97807,15448,20843,7,90478,199934
2025-02-25 10:45:12.190,97619,15453,20840,4,90414,199801
2025-02-25 10:45:12.193,97627,15486,20861,6,90488,200010
2025-02-25 10:45:12.339,97915,15528,20927,6,90671,200341
2025-02-25 10:45:12.370,97996,15488,20881,5,90547,200195
2025-02-25 10:45:12.525,97922,15460,20841,6,90373,199962
2025-02-25 10:45:12.558,97798,15466,20857,9,90286,199733
2025-02-25 10:45:12.738,97795,15488,20889,5,90343,199784
2025-02-25 10:45:12.762,97722,15514,20879,6,90408,199870
2025-02-25 10:45:12.922,97879,15550,20931,6,90492,200015
2025-02-25 10:45:12.962,97980,15524,20917,5,90528,200075
2025-02-25 10:45:13.068,97734,15510,20873,4,90317,199606
2025-02-25 10:45:13.255,97792,15518,20868,5,90283,199551
2025-02-25 10:45:13.262,97606,15526,20855,8,90240,199470
2025-02-25 10:45:13.402,97665,15595,20926,4,90379,199762
2025-02-25 10:45:13.584,97907,15700,21073,6,90620,200248
2025-02-25 10:45:13.586,98068,15662,21050,6,90551,200160
2025-02-25 10:45:13.733,98010,15646,21039,5,90456,200042
2025-02-25 10:45:13.758,97900,15650,21036,5,90376,199835
2025-02-25 10:45:13.958,97850,15672,21047,5,90397,199810
2025-02-25 10:45:13.960,97819,15721,21107,5,90480,199902
2025-02-25 10:45:14.107,97870,15784,21182,5,90556,199999
2025-02-25 10:45:14.299,98063,15750,21151,5,90561,200010
2025-02-25 10:45:14.302,97949,15711,21089,6,90505,199930
2025-02-25 10:45:14.522,98000,15752,21140,4,90673,200183
2025-02-25 10:45:14.525,98038,15798,21197,5,90697,200326
2025-02-25 10:45:14.550,98089,15845,21275,6,90688,200373
2025-02-25 10:45:14.703,98179,15846,21262,6,90665,200351
2025-02-25 10:45:14.855,98044,15775,21154,4,90437,200003
2025-02-25 10:45:14.857,97996,15742,21121,7,90308,199780
2025-02-25 10:45:15.038,97971,15746,21138,4,90272,199670
2025-02-25 10:45:15.054,97921,15749,21133,7,90303,199711
2025-02-25 10:45:15.187,97856,15782,21160,3,90358,199809
2025-02-25 10:45:15.410,98091,15852,21266,5,90549,200225
2025-02-25 10:45:15.413,98206,15839,21248,11,90579,200255
2025-02-25 10:45:15.446,98120,15804,21197,6,90463,200020
2025-02-25 10:45:15.620,98105,15811,21211,9,90473,199999
2025-02-25 10:45:15.650,97949,15819,21197,4,90375,199789
2025-02-25 10:45:15.794,97914,15851,21213,8,90354,199762
2025-02-25 10:45:15.941,97959,15884,21239,5,90296,199646
2025-02-25 10:45:15.950,98041,15820,21158,5,90198,199687
2025-02-25 10:45:16.132,97912,15779,21101,5,90027,199395
2025-02-25 10:45:16.151,97877,15770,21081,6,90002,199278
2025-02-25 10:45:16.279,97798,15765,21073,3,90003,199245
2025-02-25 10:45:16.459,97927,15826,21165,6,90227,199642
2025-02-25 10:45:16.462,98062,15881,21240,4,90310,199774
2025-02-25 10:45:16.613,98015,15845,21195,5,90200,199581
2025-02-25 10:45:16.647,97762,15832,21139,4,90046,199207
2025-02-25 10:45:16.799,97761,15875,21167,6,90064,199118
2025-02-25 10:45:16.847,97560,15904,21165,3,90047,199042
2025-02-25 10:45:16.967,97736,15987,21257,6,90204,199372
2025-02-25 10:45:17.146,97891,16026,21306,6,90223,199418
2025-02-25 10:45:17.148,97932,15982,21255,5,90060,199231
2025-02-25 10:45:17.342,97718,15966,21207,4,89911,198956
2025-02-25 10:45:17.351,97751,15964,21180,2,89922,198952
2025-02-25 10:45:17.527,97671,15970,21172,8,89961,198979
2025-02-25 10:45:17.538,97788,16020,21241,3,90073,199169
2025-02-25 10:45:17.680,97982,16039,21278,6,90155,199345
2025-02-25 10:45:17.924,97971,16009,21236,4,90090,199279
2025-02-25 10:45:17.926,97777,16014,21224,8,89981,199013
2025-02-25 10:45:17.942,97606,16043,21217,5,89835,198665
2025-02-25 10:45:18.072,97503,16067,21209,5,89825,198645
2025-02-25 10:45:18.247,97641,16125,21275,9,89886,198770
2025-02-25 10:45:18.250,97787,16117,21278,6,89863,198806
2025-02-25 10:45:18.395,97683,16072,21216,4,89671,198564
2025-02-25 10:45:18.435,97603,16082,21207,3,89607,198408
2025-02-25 10:45:18.580,97558,16098,21213,6,89630,198426
2025-02-25 10:45:18.734,97503,16115,21207,5,89670,198491
2025-02-25 10:45:18.739,97717,16148,21267,2,89797,198718
2025-02-25 10:45:18.973,97791,16131,21255,7,89781,198745
2025-02-25 10:45:18.975,97581,16110,21208,3,89631,198414
2025-02-25 10:45:19.113,97508,16136,21221,5,89546,198164
2025-02-25 10:45:19.139,97256,16151,21207,5,89411,197894
2025-02-25 10:45:19.293,97256,16185,21211,4,89454,198012
2025-02-25 10:45:19.331,97383,16210,21240,3,89489,198074
2025-02-25 10:45:19.501,97401,16174,21186,6,89389,197943
2025-02-25 10:45:19.531,97240,16146,21134,3,89155,197565
2025-02-25 10:45:19.675,97177,16151,21135,3,89055,197369
2025-02-25 10:45:19.821,97206,16159,21136,5,89124,197504
2025-02-25 10:45:19.835,97237,16170,21142,6,89266,197793
2025-02-25 10:45:20.005,97506,16207,21199,3,89473,198192
2025-02-25 10:45:20.034,97592,16183,21184,7,89437,198149
2025-02-25 10:45:20.160,97491,16161,21152,5,89348,198025
2025-02-25 10:45:20.345,97398,16194,21166,6,89299,197786
2025-02-25 10:45:20.348,97142,16199,21138,4,89173,197565
2025-02-25 10:45:20.492,97188,16196,21123,5,89159,197616
2025-02-25 10:45:20.527,97266,16187,21111,5,89137,197624
2025-02-25 10:45:20.732,97281,16147,21049,2,89023,197472
2025-02-25 10:45:20.735,97328,16113,20999,7,88869,197308
2025-02-25 10:45:20.878,97279,16106,21003,4,88821,197251
2025-02-25 10:45:21.068,97438,16122,21005,6,89048,197687
2025-02-25 10:45:21.070,97528,16157,21057,5,89359,198317
2025-02-25 10:45:21.275,97864,16235,21184,4,89647,198876
2025-02-25 10:45:21.278,97867,16196,21158,6,89601,198784
2025-02-25 10:45:21.324,97600,16154,21077,4,89390,198366
2025-02-25 10:45:21.452,97482,16178,21069,3,89279,198019
2025-02-25 10:45:21.603,97215,16176,21020,5,89137,197820
2025-02-25 10:45:21.626,97500,16215,21057,6,89335,198323
2025-02-25 10:45:21.795,97880,16232,21105,2,89549,198859
2025-02-25 10:45:21.826,98001,16172,21073,4,89545,198935
2025-02-25 10:45:21.944,97761,16137,21040,5,89357,198572
2025-02-25 10:45:22.131,97750,16136,21057,5,89383,198570
2025-02-25 10:45:22.133,97672,16139,21062,4,89431,198657
2025-02-25 10:45:22.280,97666,16189,21117,3,89623,199073
2025-02-25 10:45:22.319,97868,16237,21202,6,89809,199506
2025-02-25 10:45:22.520,98005,16175,21149,6,89775,199455
2025-02-25 10:45:22.522,97769,16130,21072,5,89661,199185
2025-02-25 10:45:22.670,97695,16144,21105,6,89624,199000
2025-02-25 10:45:22.858,97557,16174,21119,6,89608,199024
2025-02-25 10:45:22.860,97697,16242,21209,4,89732,199384
2025-02-25 10:45:23.067,97720,16242,21205,7,89681,199338
2025-02-25 10:45:23.069,97723,16173,21132,2,89581,199165
2025-02-25 10:45:23.103,97593,16146,21111,4,89421,198825
2025-02-25 10:45:23.240,97598,16146,21137,3,89419,198806
2025-02-25 10:45:23.391,97624,16150,21149,5,89487,198958
2025-02-25 10:45:23.407,97806,16196,21229,4,89701,199438
2025-02-25 10:45:23.582,97980,16219,21284,6,89867,199809
2025-02-25 10:45:23.607,97886,16158,21222,6,89774,199640
2025-02-25 10:45:23.729,97623,16128,21161,6,89636,199225
2025-02-25 10:45:23.910,97416,16134,21139,4,89387,198625
2025-02-25 10:45:23.913,97258,16169,21168,4,89286,198483
2025-02-25 10:45:24.066,97478,16222,21242,3,89452,198895
2025-02-25 10:45:24.099,97558,16223,21241,3,89431,198917
2025-02-25 10:45:24.304,97555,16178,21189,4,89365,198845
2025-02-25 10:45:24.306,97403,16140,21143,6,89168,198442
2025-02-25 10:45:24.447,97683,16165,21215,4,89373,198898
2025-02-25 10:45:24.634,97669,16172,21233,4,89477,199158
2025-02-25 10:45:24.636,97876,16215,21311,7,89765,199782
2025-02-25 10:45:24.781,98109,16249,21371,5,89952,200185
2025-02-25 10:45:24.803,98017,16196,21305,6,89836,199975
2025-02-25 10:45:24.967,97548,16156,21218,6,89511,199186
2025-02-25 10:45:25.008,97489,16181,21229,5,89341,198792
2025-02-25 10:45:25.116,97442,16218,21255,5,89345,198899
2025-02-25 10:45:25.298,97629,16266,21327,3,89485,199269
2025-02-25 10:45:25.300,97893,16276,21361,6,89587,199511
2025-02-25 10:45:25.463,97864,16240,21331,6,89485,199376
2025-02-25 10:45:25.500,97696,16213,21281,4,89410,199237
2025-02-25 10:45:25.672,97796,16200,21275,5,89485,199370
2025-02-25 10:45:25.700,97778,16194,21264,7,89532,199491
2025-02-25 10:45:25.875,98005,16227,21326,7,89790,200049
2025-02-25 10:45:25.891,98215,16249,21385,6,89957,200407
2025-02-25 10:45:26.050,98158,16216,21361,6,89934,200340
2025-02-25 10:45:26.091,97759,16205,21310,6,89711,199743
2025-02-25 10:45:26.197,97608,16187,21254,5,89561,199438
2025-02-25 10:45:26.383,97611,16209,21269,3,89658,199670
2025-02-25 10:45:26.395,97831,16265,21347,6,89870,200116
2025-02-25 10:45:26.590,97909,16242,21336,6,89855,200134
2025-02-25 10:45:26.596,97715,16195,21270,3,89646,199787
2025-02-25 10:45:26.771,97524,16170,21231,2,89520,199533
2025-02-25 10:45:26.796,97577,16145,21198,5,89587,199652
2025-02-25 10:45:26.917,97636,16153,21211,4,89767,200000
2025-02-25 10:45:27.097,97944,16204,21297,6,90081,200608
2025-02-25 10:45:27.099,98078,16166,21276,5,90150,200761
2025-02-25 10:45:27.252,97827,16109,21195,5,89958,200407
2025-02-25 10:45:27.292,97619,16105,21151,6,89796,200015
2025-02-25 10:45:27.425,97506,16100,21101,5,89696,199822
2025-02-25 10:45:27.583,97721,16121,21108,3,89907,200358
2025-02-25 10:45:27.592,97865,16136,21144,5,89938,200473
2025-02-25 10:45:27.807,97860,16087,21104,6,89854,200356
2025-02-25 10:45:27.809,97701,16055,21067,5,89710,200156
2025-02-25 10:45:27.954,97676,16043,21031,4,89728,200162
2025-02-25 10:45:27.997,97642,16014,20955,5,89811,200232
2025-02-25 10:45:28.194,97786,16043,20988,7,90058,200687
2025-02-25 10:45:28.196,97959,16075,21041,4,90232,201041
2025-02-25 10:45:28.342,97924,16005,20951,4,90110,200826
2025-02-25 10:45:28.518,97735,15963,20860,4,89959,200544
2025-02-25 10:45:28.521,97453,15971,20836,3,89748,199983
2025-02-25 10:45:28.675,97236,15961,20754,9,89647,199743
2025-02-25 10:45:28.687,97433,15984,20774,7,89814,200130
2025-02-25 10:45:28.861,97581,16028,20818,6,89914,200329
2025-02-25 10:45:28.880,97463,15964,20720,7,89722,199957
2025-02-25 10:45:29.012,97185,15909,20615,6,89470,199498
2025-02-25 10:45:29.198,97008,15887,20544,6,89341,199217
2025-02-25 10:45:29.201,97141,15864,20482,4,89514,199542
2025-02-25 10:45:29.400,97210,15886,20512,5,89761,200036
2025-02-25 10:45:29.402,97573,15963,20633,4,90133,200837
2025-02-25 10:45:29.577,97683,15912,20571,3,90160,200878
2025-02-25 10:45:29.583,97229,15849,20433,8,89835,200210
2025-02-25 10:45:29.729,97070,15867,20399,9,89621,199694
2025-02-25 10:45:29.776,96945,15871,20356,5,89662,199747
2025-02-25 10:45:29.990,97274,15937,20449,5,89993,200430
2025-02-25 10:45:29.993,97451,15965,20507,5,90113,200672
2025-02-25 10:45:30.133,97248,15887,20375,3,89859,200261
2025-02-25 10:45:30.177,97062,15848,20306,7,89643,199905
2025-02-25 10:45:30.310,97068,15837,20296,10,89624,199873
2025-02-25 10:45:30.454,97059,15812,20236,6,89758,200095
2025-02-25 10:45:30.479,97334,15853,20310,5,90170,200786
2025-02-25 10:45:30.655,97628,15909,20411,3,90499,201386
2025-02-25 10:45:30.672,97593,15845,20321,5,90479,201307
2025-02-25 10:45:30.823,97267,15830,20279,5,90217,200677
2025-02-25 10:45:31.068,97192,15841,20272,5,90082,200371
2025-02-25 10:45:31.070,96997,15829,20202,3,90023,200210
2025-02-25 10:45:31.073,97250,15854,20233,5,90246,200623
2025-02-25 10:45:31.213,97408,15863,20275,8,90349,200864
2025-02-25 10:45:31.395,97229,15792,20174,4,90137,200525
2025-02-25 10:45:31.397,97153,15758,20130,6,90038,200466
2025-02-25 10:45:31.606,97189,15770,20162,4,90101,200622
2025-02-25 10:45:31.608,97174,15768,20132,2,90245,200859
2025-02-25 10:45:31.782,97501,15834,20228,7,90636,201594
2025-02-25 10:45:31.784,97716,15855,20290,7,90795,201897
2025-02-25 10:45:31.932,97661,15794,20218,4,90741,201761
2025-02-25 10:45:31.968,97401,15783,20195,5,90538,201253
2025-02-25 10:45:32.115,97456,15801,20212,5,90530,201203
2025-02-25 10:45:32.277,97317,15797,20183,4,90486,201207
2025-02-25 10:45:32.280,97515,15832,20214,6,90695,201639
2025-02-25 10:45:32.464,97672,15811,20203,3,90685,201678
2025-02-25 10:45:32.472,97620,15735,20117,4,90498,201486
2025-02-25 10:45:32.611,97474,15698,20080,4,90351,201243
2025-02-25 10:45:32.846,97611,15711,20115,5,90458,201440
2025-02-25 10:45:32.848,97614,15731,20167,4,90594,201662
2025-02-25 10:45:32.863,97787,15815,20287,5,90939,202305
2025-02-25 10:45:32.990,97921,15831,20301,4,91026,202467
2025-02-25 10:45:33.169,97878,15751,20197,4,90862,202171
2025-02-25 10:45:33.172,97620,15762,20219,6,90649,201604
2025-02-25 10:45:33.318,97516,15772,20223,7,90514,201257
2025-02-25 10:45:33.496,97399,15802,20250,4,90535,201181
2025-02-25 10:45:33.499,97611,15865,20334,5,90740,201541
2025-02-25 10:45:33.644,97641,15847,20325,4,90685,201504
2025-02-25 10:45:33.672,97457,15768,20188,7,90397,201120
2025-02-25 10:45:33.824,97419,15732,20163,9,90314,201033
2025-02-25 10:45:33.861,97577,15725,20188,6,90428,201255
2025-02-25 10:45:33.986,97548,15731,20209,5,90542,201418
2025-02-25 10:45:34.172,97882,15804,20342,6,90967,202155
2025-02-25 10:45:34.175,97971,15796,20364,5,91017,202277
2025-02-25 10:45:34.320,97753,15735,20258,4,90892,201978
2025-02-25 10:45:34.365,97563,15734,20236,5,90692,201423
2025-02-25 10:45:34.548,97413,15728,20222,6,90557,201049
2025-02-25 10:45:34.557,97367,15752,20265,6,90657,201143
2025-02-25 10:45:34.689,97508,15803,20329,5,90772,201342
2025-02-25 10:45:34.874,97664,15784,20332,6,90818,201525
2025-02-25 10:45:34.877,97397,15726,20241,4,90568,201107
2025-02-25 10:45:35.093,97296,15670,20147,5,90415,200892
2025-02-25 10:45:35.095,97440,15648,20128,3,90482,201012
2025-02-25 10:45:35.136,97530,15658,20155,3,90750,201469
2025-02-25 10:45:35.262,97894,15730,20296,5,91194,202319
2025-02-25 10:45:35.411,98149,15743,20360,6,91365,202674
2025-02-25 10:45:35.440,98011,15697,20316,8,91305,202496
2025-02-25 10:45:35.590,97662,15695,20289,6,91096,201866
2025-02-25 10:45:35.632,97390,15679,20234,6,90848,201242
2025-02-25 10:45:35.777,97352,15692,20243,3,90863,201245
2025-02-25 10:45:35.955,97534,15729,20303,5,90979,201478
2025-02-25 10:45:35.957,97616,15706,20286,4,90968,201532
2025-02-25 10:45:36.101,97563,15651,20227,5,90817,201381
2025-02-25 10:45:36.133,97398,15618,20176,7,90675,201103
2025-02-25 10:45:36.339,97515,15577,20140,8,90749,201218
2025-02-25 10:45:36.341,97538,15555,20141,2,90894,201469
2025-02-25 10:45:36.485,97823,15615,20263,3,91249,202190
2025-02-25 10:45:36.530,97956,15636,20307,5,91337,202390
2025-02-25 10:45:36.665,97797,15583,20251,5,91229,202117
2025-02-25 10:45:36.869,97518,15591,20227,5,90930,201383
2025-02-25 10:45:36.871,97236,15580,20164,5,90715,200949
2025-02-25 10:45:37.042,97436,15612,20215,7,90865,201304
2025-02-25 10:45:37.045,97685,15686,20330,7,91087,201758
2025-02-25 10:45:37.192,97703,15644,20298,7,91012,201642
2025-02-25 10:45:37.232,97531,15607,20248,2,90840,201379
2025-02-25 10:45:37.377,97459,15601,20247,4,90782,201236
2025-02-25 10:45:37.528,97547,15575,20220,3,90838,201377
2025-02-25 10:45:37.531,97689,15581,20253,3,91068,201833
2025-02-25 10:45:37.715,98029,15665,20400,6,91435,202585
2025-02-25 10:45:37.718,98103,15661,20422,4,91498,202664
2025-02-25 10:45:37.933,97913,15607,20350,8,91340,202341
2025-02-25 10:45:37.935,97683,15626,20338,4,91104,201805
2025-02-25 10:45:38.103,97567,15617,20306,6,91044,201761
2025-02-25 10:45:38.117,97737,15653,20402,5,91280,202296
2025-02-25 10:45:38.251,97932,15710,20500,3,91402,202499
2025-02-25 10:45:38.438,97717,15655,20418,4,91095,201858
2025-02-25 10:45:38.441,97537,15597,20335,4,90853,201454
2025-02-25 10:45:38.640,97466,15596,20347,3,90769,201260
2025-02-25 10:45:38.642,97571,15601,20364,1,90879,201457
2025-02-25 10:45:38.819,97668,15627,20422,9,91110,201865
2025-02-25 10:45:38.822,97937,15698,20541,5,91395,202425
2025-02-25 10:45:38.979,98059,15689,20550,5,91490,202561
2025-02-25 10:45:39.012,97737,15643,20474,3,91229,201969
2025-02-25 10:45:39.159,97514,15668,20481,7,90939,201283
2025-02-25 10:45:39.313,97350,15681,20470,3,90813,201025
2025-02-25 10:45:39.315,97603,15702,20521,6,91035,201443
2025-02-25 10:45:39.491,97797,15739,20594,5,91201,201767
2025-02-25 10:45:39.504,97834,15690,20552,5,91116,201696
2025-02-25 10:45:39.699,97726,15653,20513,5,91024,201675
2025-02-25 10:45:39.705,97912,15657,20515,6,91170,202018
2025-02-25 10:45:39.877,97965,15635,20486,6,91394,202428
2025-02-25 10:45:39.909,98105,15646,20545,7,91577,202697
2025-02-25 10:45:40.030,98357,15654,20616,4,91718,202994
2025-02-25 10:45:40.213,98479,15625,20598,2,91807,203190
2025-02-25 10:45:40.216,98223,15590,20562,4,91646,202808
2025-02-25 10:45:40.447,98084,15590,20571,5,91460,202348
2025-02-25 10:45:40.450,97715,15579,20539,7,91207,201773
2025-02-25 10:45:40.622,97838,15588,20552,5,91288,201866
2025-02-25 10:45:40.625,97915,15592,20585,3,91324,201939
2025-02-25 10:45:40.770,97894,15541,20538,4,91217,201836
2025-02-25 10:45:40.800,97619,15494,20464,8,90953,201432
2025-02-25 10:45:40.949,97402,15502,20443,8,90728,201080
2025-02-25 10:45:41.105,97347,15546,20454,3,90785,201102
2025-02-25 10:45:41.109,97679,15609,20580,8,91181,201823
2025-02-25 10:45:41.331,97946,15686,20719,6,91469,202348
2025-02-25 10:45:41.333,97936,15635,20694,9,91456,202259
2025-02-25 10:45:41.477,97543,15598,20641,7,91156,201562
2025-02-25 10:45:41.497,97534,15621,20659,5,90976,201132
2025-02-25 10:45:41.659,97417,15641,20681,5,90974,201251
2025-02-25 10:45:41.696,97723,15685,20784,4,91239,201825
2025-02-25 10:45:41.803,97746,15660,20782,5,91184,201673
2025-02-25 10:45:41.984,97541,15590,20698,6,90936,201248
2025-02-25 10:45:42.001,97304,15559,20654,9,90671,200673
2025-02-25 10:45:42.135,97553,15582,20709,5,90863,201008
2025-02-25 10:45:42.324,97600,15604,20760,4,91026,201353
2025-02-25 10:45:42.327,97799,15636,20840,4,91269,201893
2025-02-25 10:45:42.472,98016,15641,20876,6,91427,202214
2025-02-25 10:45:42.493,97847,15570,20796,6,91280,201886
2025-02-25 10:45:42.660,97477,15568,20777,5,90974,201221
2025-02-25 10:45:42.694,97567,15583,20791,5,90908,201129
2025-02-25 10:45:42.831,97478,15610,20807,7,90860,201055
2025-02-25 10:45:43.017,97563,15655,20865,10,90936,201213
2025-02-25 10:45:43.020,97674,15631,20857,5,90978,201358
2025-02-25 10:45:43.217,97643,15592,20825,7,90891,201210
2025-02-25 10:45:43.220,97557,15588,20819,6,90847,201155
2025-02-25 10:45:43.393,97770,15595,20858,5,91005,201494
2025-02-25 10:45:43.396,97772,15598,20858,6,91056,201642
2025-02-25 10:45:43.540,97924,15638,20920,7,91251,202087
2025-02-25 10:45:43.772,98106,15639,20951,5,91358,202315
2025-02-25 10:45:43.774,98117,15593,20892,4,91335,202268
2025-02-25 10:45:43.781,97956,15602,20907,4,91177,201878
2025-02-25 10:45:43.923,97923,15612,20917,4,91088,201688
2025-02-25 10:45:44.103,97826,15632,20925,5,91071,201616
2025-02-25 10:45:44.106,97940,15683,20981,3,91221,201918
2025-02-25 10:45:44.252,97943,15663,20973,5,91145,201823
2025-02-25 10:45:44.273,97954,15601,20925,4,91044,201786
2025-02-25 10:45:44.434,97941,15590,20909,3,91009,201709
2025-02-25 10:45:44.473,98028,15591,20926,5,91069,201805
2025-02-25 10:45:44.579,97990,15602,20936,5,91158,201952
2025-02-25 10:45:44.841,98232,15667,21033,5,91513,202664
2025-02-25 10:45:44.844,98363,15710,21107,2,91687,203003
2025-02-25 10:45:44.877,98350,15650,21051,2,91627,202855
2025-02-25 10:45:44.989,98051,15674,21051,5,91404,202210
2025-02-25 10:45:45.162,97885,15678,21032,3,91158,201704
2025-02-25 10:45:45.164,97763,15694,21036,3,91100,201638
2025-02-25 10:45:45.306,98009,15742,21113,5,91318,202039
2025-02-25 10:45:45.558,98028,15720,21073,7,91257,202009
2025-02-25 10:45:45.561,97956,15659,20999,4,91070,201764
2025-02-25 10:45:45.563,97882,15649,21003,4,91012,201601
2025-02-25 10:45:45.708,98005,15679,21047,5,91156,201831
2025-02-25 10:45:45.929,97956,15674,21042,4,91230,201934
2025-02-25 10:45:45.933,98144,15719,21103,4,91448,202343
2025-02-25 10:45:45.966,98212,15739,21130,7,91527,202506
2025-02-25 10:45:46.077,98210,15685,21047,4,91478,202448
2025-02-25 10:45:46.260,97982,15679,21018,6,91288,201996
2025-02-25 10:45:46.262,97864,15700,21010,5,91130,201653
2025-02-25 10:45:46.412,97845,15759,21064,5,91245,201887
2025-02-25 10:45:46.458,98076,15813,21139,5,91385,202164
2025-02-25 10:45:46.649,98159,15791,21112,5,91345,202180
2025-02-25 10:45:46.658,98050,15746,21036,7,91214,202013
2025-02-25 10:45:46.796,97958,15716,20981,4,91117,201793
2025-02-25 10:45:46.976,98038,15720,20964,7,91205,201941
2025-02-25 10:45:46.978,98046,15730,20972,5,91291,202082
2025-02-25 10:45:47.182,98214,15764,21014,6,91443,202349
2025-02-25 10:45:47.184,98301,15740,21002,4,91483,202477
2025-02-25 10:45:47.363,98059,15691,20861,7,91312,202120
2025-02-25 10:45:47.365,97896,15674,20800,6,91147,201708
2025-02-25 10:45:47.520,97795,15671,20778,5,91095,201566
2025-02-25 10:45:47.553,97879,15726,20821,8,91264,201915
2025-02-25 10:45:47.693,98000,15792,20900,6,91398,202149
2025-02-25 10:45:47.851,97985,15760,20846,4,91301,201929
2025-02-25 10:45:47.854,97666,15711,20717,4,91028,201456
2025-02-25 10:45:48.036,97493,15674,20593,4,90834,201070
2025-02-25 10:45:48.046,97540,15676,20562,6,90870,201095
2025-02-25 10:45:48.179,97651,15718,20607,1,91053,201440
2025-02-25 10:45:48.406,97920,15769,20661,4,91373,202064
2025-02-25 10:45:48.409,97994,15737,20624,7,91408,202124
2025-02-25 10:45:48.450,97754,15695,20530,4,91202,201723
2025-02-25 10:45:48.551,97618,15688,20456,5,91028,201332
2025-02-25 10:45:48.731,97507,15661,20383,3,90923,201143
2025-02-25 10:45:48.749,97646,15704,20440,8,91034,201387
2025-02-25 10:45:48.939,97794,15754,20499,8,91145,201608
2025-02-25 10:45:48.953,97722,15719,20442,6,91043,201383
2025-02-25 10:45:49.112,97640,15698,20394,2,90931,201189
2025-02-25 10:45:49.142,97472,15689,20348,5,90823,200981
2025-02-25 10:45:49.263,97476,15670,20272,4,90853,201040
2025-02-25 10:45:49.441,97621,15702,20315,5,91036,201402
2025-02-25 10:45:49.446,97820,15757,20394,5,91229,201799
2025-02-25 10:45:49.592,97918,15735,20356,6,91283,201889
2025-02-25 10:45:49.774,97740,15704,20295,5,91123,201553
2025-02-25 10:45:49.776,97686,15719,20308,6,91055,201365
2025-02-25 10:45:49.924,97519,15696,20218,5,90960,201165
2025-02-25 10:45:49.949,97660,15721,20235,4,91059,201405
2025-02-25 10:45:50.153,97860,15757,20316,7,91204,201702
2025-02-25 10:45:50.155,97779,15714,20253,6,91089,201512
2025-02-25 10:45:50.299,97622,15678,20188,7,90929,201252
2025-02-25 10:45:50.344,97548,15662,20157,5,90845,201112
2025-02-25 10:45:50.483,97534,15641,20087,4,90897,201173
2025-02-25 10:45:50.629,97766,15676,20154,3,91161,201684
2025-02-25 10:45:50.642,97871,15702,20221,4,91281,201931
2025-02-25 10:45:50.815,97946,15666,20173,5,91346,202037
2025-02-25 10:45:50.841,97705,15630,20115,7,91128,201542
2025-02-25 10:45:50.964,97682,15649,20138,4,91057,201321
2025-02-25 10:45:51.152,97520,15617,20054,5,90998,201227
2025-02-25 10:45:51.155,97676,15629,20072,5,91181,201635
2025-02-25 10:45:51.294,97886,15687,20179,7,91355,201973
2025-02-25 10:45:51.338,97792,15628,20126,2,91217,201674
2025-02-25 10:45:51.539,97559,15584,20064,8,90990,201210
2025-02-25 10:45:51.543,97598,15565,20052,5,90947,201159
2025-02-25 10:45:51.699,97409,15538,19987,4,90933,201087
2025-02-25 10:45:51.738,97714,15552,20032,2,91171,201560
2025-02-25 10:45:51.965,97897,15577,20092,5,91329,201861
2025-02-25 10:45:51.967,97964,15525,20056,4,91367,201907
2025-02-25 10:45:52.245,97655,15499,20032,7,91166,201353
2025-02-25 10:45:52.252,97637,15526,20053,5,91151,201212
2025-02-25 10:45:52.258,97438,15527,20038,6,91110,201167
2025-02-25 10:45:52.336,97627,15556,20092,3,91273,201500
2025-02-25 10:45:52.648,97710,15564,20122,4,91283,201488
2025-02-25 10:45:52.650,97577,15489,20050,6,91061,201081
2025-02-25 10:45:52.653,97433,15447,20006,3,90896,200754
2025-02-25 10:45:52.834,97506,15436,20013,5,90914,200760
2025-02-25 10:45:52.837,97432,15423,19995,6,90990,200913
2025-02-25 10:45:53.051,97686,15451,20056,5,91255,201420
2025-02-25 10:45:53.053,98024,15456,20101,4,91431,201834
2025-02-25 10:45:53.243,98201,15406,20067,5,91553,202118
2025-02-25 10:45:53.247,97840,15383,20064,2,91343,201537
2025-02-25 10:45:53.460,97718,15378,20063,4,91207,201199
2025-02-25 10:45:53.463,97351,15362,20008,8,91033,200809
2025-02-25 10:45:53.736,97659,15415,20096,4,91295,201340
2025-02-25 10:45:53.744,97877,15463,20187,6,91471,201666
2025-02-25 10:45:53.751,97724,15377,20109,3,91281,201298
2025-02-25 10:45:53.825,97574,15352,20081,6,91133,200973
2025-02-25 10:45:54.080,97516,15362,20095,5,91117,200853
2025-02-25 10:45:54.084,97421,15353,20080,5,91157,200921
2025-02-25 10:45:54.122,97673,15408,20182,4,91412,201405
2025-02-25 10:45:54.367,97851,15433,20245,2,91519,201618
2025-02-25 10:45:54.369,97697,15351,20155,4,91387,201304
2025-02-25 10:45:54.565,97447,15360,20157,4,91224,200838
2025-02-25 10:45:54.568,97465,15373,20161,5,91182,200729
2025-02-25 10:45:54.718,97316,15372,20149,5,91095,200588
2025-02-25 10:45:54.726,97592,15405,20213,6,91296,201033
2025-02-25 10:45:54.915,97665,15416,20248,5,91318,201059
2025-02-25 10:45:54.918,97399,15345,20168,3,91035,200504
2025-02-25 10:45:55.076,97357,15343,20169,7,90959,200320
2025-02-25 10:45:55.118,97381,15353,20182,5,90992,200367
2025-02-25 10:45:55.346,97303,15364,20185,6,91098,200594
2025-02-25 10:45:55.349,97553,15425,20281,5,91341,201095
2025-02-25 10:45:55.510,97752,15426,20327,5,91439,201254
2025-02-25 10:45:55.522,97564,15363,20250,7,91270,200904
2025-02-25 10:45:55.715,97388,15381,20265,7,91096,200445
2025-02-25 10:45:55.722,97412,15410,20290,7,91113,200450
2025-02-25 10:45:55.943,97361,15436,20310,4,91151,200569
2025-02-25 10:45:55.947,97577,15480,20376,7,91334,200992
2025-02-25 10:45:56.163,97712,15474,20390,5,91373,201062
2025-02-25 10:45:56.165,97537,15408,20325,11,91138,200632
2025-02-25 10:45:56.316,97384,15390,20300,8,90974,200311
2025-02-25 10:45:56.319,97438,15397,20314,6,90982,200335
2025-02-25 10:45:56.510,97354,15414,20327,6,91064,200496
2025-02-25 10:45:56.518,97577,15468,20405,2,91275,200933
2025-02-25 10:45:56.674,97741,15464,20432,10,91362,201069
2025-02-25 10:45:56.710,97572,15404,20358,6,91204,200768
2025-02-25 10:45:56.932,97436,15415,20372,4,91076,200423
2025-02-25 10:45:56.934,97423,15424,20361,6,91038,200372
2025-02-25 10:45:57.074,97398,15467,20401,4,91088,200516
2025-02-25 10:45:57.110,97656,15554,20522,3,91316,201101
2025-02-25 10:45:57.266,97726,15539,20529,6,91295,201054
2025-02-25 10:45:57.314,97589,15485,20466,9,91147,200791
2025-02-25 10:45:57.494,97440,15489,20460,4,91009,200481
2025-02-25 10:45:57.514,97542,15503,20478,3,91076,200607
2025-02-25 10:45:57.678,97532,15531,20516,6,91139,200757
2025-02-25 10:45:57.706,97837,15610,20632,4,91390,201303
2025-02-25 10:45:57.825,97852,15600,20622,8,91394,201314
2025-02-25 10:45:58.027,97550,15537,20527,4,91165,200849
2025-02-25 10:45:58.031,97489,15572,20551,5,91051,200517
2025-02-25 10:45:58.181,97427,15588,20563,4,91055,200563
2025-02-25 10:45:58.210,97610,15654,20646,4,91198,200932
2025-02-25 10:45:58.365,97770,15706,20710,6,91268,201140
2025-02-25 10:45:58.411,97821,15682,20690,6,91234,201066
2025-02-25 10:45:58.533,97600,15659,20660,4,91037,200724
2025-02-25 10:45:58.771,97485,15664,20653,4,90939,200509
2025-02-25 10:45:58.773,97533,15661,20652,3,90997,200619
2025-02-25 10:45:58.802,97659,15694,20706,5,91130,200867
2025-02-25 10:45:58.922,97812,15728,20762,3,91255,201134
2025-02-25 10:45:59.117,97857,15696,20727,5,91258,201148
2025-02-25 10:45:59.119,97629,15684,20690,6,91054,200737
2025-02-25 10:45:59.269,97628,15712,20712,4,90973,200552
2025-02-25 10:45:59.307,97430,15719,20709,4,90960,200506
2025-02-25 10:45:59.451,97722,15777,20790,5,91220,201064
2025-02-25 10:45:59.618,97774,15800,20838,4,91241,201082
2025-02-25 10:45:59.620,97734,15755,20780,6,91084,200827
2025-02-25 10:45:59.804,97560,15734,20745,6,90908,200556
2025-02-25 10:45:59.807,97649,15744,20770,4,90931,200601
2025-02-25 10:45:59.965,97518,15762,20763,6,90998,200687
2025-02-25 10:45:59.998,97774,15805,20840,4,91253,201130
2025-02-25 10:46:00.164,97862,15814,20868,5,91325,201262
2025-02-25 10:46:00.198,97755,15776,20811,4,91227,201047
2025-02-25 10:46:00.317,97472,15756,20765,7,90973,200456
2025-02-25 10:46:00.560,97507,15791,20789,7,90935,200313
2025-02-25 10:46:00.562,97382,15816,20787,8,90956,200412
2025-02-25 10:46:00.594,97553,15863,20849,4,91100,200740
2025-02-25 10:46:00.739,97691,15863,20869,4,91137,200816
2025-02-25 10:46:00.929,97576,15803,20809,3,90945,200489
2025-02-25 10:46:00.932,97423,15785,20779,4,90790,200215
2025-02-25 10:46:01.163,97523,15787,20787,3,90846,200326
2025-02-25 10:46:01.166,97499,15810,20807,3,90976,200541
2025-02-25 10:46:01.198,97697,15874,20891,3,91203,200983
2025-02-25 10:46:01.344,97773,15861,20883,4,91219,200978
2025-02-25 10:46:01.492,97661,15805,20814,6,91092,200750
2025-02-25 10:46:01.495,97424,15802,20784,5,90878,200227
2025-02-25 10:46:01.688,97314,15817,20783,3,90772,199972
2025-02-25 10:46:01.691,97382,15857,20817,5,90898,200225
2025-02-25 10:46:01.836,97633,15937,20932,7,91113,200676
2025-02-25 10:46:02.027,97611,15916,20906,4,91077,200595
2025-02-25 10:46:02.030,97443,15845,20820,2,90873,200229
2025-02-25 10:46:02.260,97276,15829,20785,5,90726,199894
2025-02-25 10:46:02.262,97373,15847,20804,6,90754,199957
2025-02-25 10:46:02.294,97312,15860,20813,3,90811,200025
2025-02-25 10:46:02.453,97574,15909,20892,4,91024,200452
2025-02-25 10:46:02.486,97625,15888,20875,3,91046,200509
2025-02-25 10:46:02.600,97461,15801,20759,5,90895,200196
2025-02-25 10:46:02.859,97309,15798,20749,7,90746,199806
2025-02-25 10:46:02.862,97288,15814,20756,5,90722,199739
2025-02-25 10:46:02.886,97304,15842,20780,5,90795,199926
2025-02-25 10:46:03.014,97555,15915,20891,5,90997,200332
2025-02-25 10:46:03.196,97519,15885,20864,6,90928,200209
2025-02-25 10:46:03.199,97324,15802,20752,7,90708,199811
2025-02-25 10:46:03.349,97233,15771,20716,7,90602,199537
2025-02-25 10:46:03.390,97274,15782,20733,6,90671,199619
2025-02-25 10:46:03.549,97331,15814,20771,3,90805,199858
2025-02-25 10:46:03.583,97582,15871,20867,4,91016,200291
2025-02-25 10:46:03.698,97654,15841,20856,5,91054,200361
2025-02-25 10:46:03.881,97380,15773,20751,5,90858,199938
2025-02-25 10:46:03.883,97260,15768,20745,4,90730,199542
2025-02-25 10:46:04.096,97194,15767,20734,4,90680,199416
2025-02-25 10:46:04.098,97254,15794,20760,5,90778,199644
2025-02-25 10:46:04.282,97507,15863,20868,6,90981,200038
2025-02-25 10:46:04.286,97577,15842,20858,5,90968,200013
2025-02-25 10:46:04.512,97341,15784,20787,10,90732,199631
2025-02-25 10:46:04.514,97221,15753,20735,7,90634,199426
2025-02-25 10:46:04.691,97260,15737,20718,5,90721,199508
2025-02-25 10:46:04.693,97406,15777,20779,4,90917,199853
2025-02-25 10:46:04.838,97542,15833,20858,4,91048,200109
2025-02-25 10:46:04.878,97611,15788,20834,5,91053,200101
2025-02-25 10:46:05.046,97381,15752,20766,4,90879,199715
2025-02-25 10:46:05.078,97345,15790,20825,10,90793,199430
2025-02-25 10:46:05.200,97147,15793,20803,7,90726,199295
2025-02-25 10:46:05.392,97278,15806,20814,7,90872,199580
2025-02-25 10:46:05.394,97489,15858,20892,6,91040,199900
2025-02-25 10:46:05.545,97465,15818,20847,8,90943,199718
2025-02-25 10:46:05.562,97250,15766,20785,5,90702,199320
2025-02-25 10:46:05.794,97327,15768,20795,5,90692,199274
2025-02-25 10:46:05.797,97259,15767,20799,5,90678,199224
2025-02-25 10:46:05.941,97310,15784,20805,5,90804,199410
2025-02-25 10:46:05.966,97532,15806,20850,6,91031,199825
2025-02-25 10:46:06.253,97590,15762,20813,7,91006,199817
2025-02-25 10:46:06.255,97431,15705,20741,4,90840,199510
2025-02-25 10:46:06.270,97365,15733,20769,6,90760,199279
2025-02-25 10:46:06.437,97281,15755,20788,7,90738,199222
2025-02-25 10:46:06.458,97288,15790,20809,3,90856,199540
2025-02-25 10:46:06.658,97476,15813,20867,3,91005,199821
2025-02-25 10:46:06.662,97456,15765,20814,4,90889,199566
2025-02-25 10:46:06.830,97178,15711,20731,2,90627,199065
2025-02-25 10:46:06.863,97063,15704,20717,7,90467,198732
2025-02-25 10:46:07.042,97161,15741,20752,5,90627,199016
2025-02-25 10:46:07.062,97396,15805,20841,4,90921,199623
2025-02-25 10:46:07.205,97531,15835,20894,5,91079,199912
2025-02-25 10:46:07.466,97586,15783,20839,4,91089,199907
2025-02-25 10:46:07.469,97290,15741,20771,4,90859,199354
2025-02-25 10:46:07.471,97209,15768,20804,4,90763,199063
2025-02-25 10:46:07.618,97104,15773,20782,4,90703,198922
2025-02-25 10:46:07.655,97229,15822,20837,7,90855,199252
2025-02-25 10:46:07.803,97320,15882,20911,6,90976,199518
2025-02-25 10:46:07.979,97232,15807,20816,7,90810,199184
2025-02-25 10:46:07.982,96930,15751,20726,5,90507,198568
2025-02-25 10:46:08.182,96948,15765,20740,6,90454,198451
2025-02-25 10:46:08.186,97105,15771,20751,3,90595,198738
2025-02-25 10:46:08.335,97184,15798,20788,5,90782,199107
2025-02-25 10:46:08.350,97466,15848,20880,4,91041,199660
2025-02-25 10:46:08.528,97485,15809,20827,6,91067,199668
2025-02-25 10:46:08.550,97148,15771,20764,7,90817,199057
2025-02-25 10:46:08.673,97160,15783,20768,7,90728,198812
2025-02-25 10:46:08.876,96879,15795,20747,6,90618,198578
2025-02-25 10:46:08.879,97081,15838,20802,6,90775,198915
2025-02-25 10:46:09.102,97234,15895,20887,5,90901,199154
2025-02-25 10:46:09.105,97046,15823,20779,2,90703,198769
2025-02-25 10:46:09.293,96693,15755,20669,4,90367,198099
2025-02-25 10:46:09.295,96799,15755,20674,6,90365,198072
2025-02-25 10:46:09.443,96842,15755,20679,4,90491,198323
2025-02-25 10:46:09.446,97089,15814,20773,5,90807,198937
2025-02-25 10:46:09.707,97233,15849,20838,4,90938,199192
2025-02-25 10:46:09.710,97094,15776,20735,2,90778,198881
2025-02-25 10:46:09.746,96750,15706,20615,2,90485,198271
2025-02-25 10:46:09.864,96837,15732,20653,6,90473,198161
2025-02-25 10:46:10.071,96831,15760,20677,5,90585,198379
2025-02-25 10:46:10.074,97048,15822,20778,6,90780,198829
2025-02-25 10:46:10.225,97110,15845,20821,3,90788,198836
2025-02-25 10:46:10.251,97016,15790,20750,6,90619,198548
2025-02-25 10:46:10.423,96745,15730,20649,8,90376,198083
2025-02-25 10:46:10.430,96790,15719,20662,7,90357,197979
2025-02-25 10:46:10.575,96849,15720,20670,5,90462,198178
2025-02-25 10:46:10.773,96948,15767,20739,7,90646,198557
2025-02-25 10:46:10.776,97137,15827,20840,6,90808,198909
2025-02-25 10:46:10.984,97241,15795,20815,3,90842,198921
2025-02-25 10:46:10.986,96607,15752,20718,3,90446,198022
2025-02-25 10:46:11.184,96703,15759,20697,4,90318,197747
2025-02-25 10:46:11.186,96648,15765,20694,6,90339,197856
2025-02-25 10:46:11.227,96930,15829,20799,6,90555,198412
2025-02-25 10:46:11.404,97063,15859,20854,5,90623,198567
2025-02-25 10:46:11.427,96888,15799,20768,9,90422,198166
2025-02-25 10:46:11.601,96600,15770,20698,6,90166,197670
2025-02-25 10:46:11.630,96673,15760,20706,4,90164,197682
2025-02-25 10:46:11.754,96771,15752,20716,3,90302,198008
2025-02-25 10:46:11.954,97034,15799,20797,4,90574,198604
2025-02-25 10:46:11.958,97131,15837,20857,7,90635,198763
2025-02-25 10:46:12.113,97239,15800,20824,6,90611,198706
2025-02-25 10:46:12.123,96905,15795,20807,6,90374,198197
2025-02-25 10:46:12.306,96933,15816,20820,6,90352,198130
2025-02-25 10:46:12.322,96734,15806,20785,6,90221,197846
2025-02-25 10:46:12.459,96887,15834,20827,5,90312,198053
2025-02-25 10:46:12.708,97017,15864,20880,7,90376,198222
2025-02-25 10:46:12.711,96975,15815,20830,7,90245,198004
2025-02-25 10:46:12.727,96814,15790,20793,6,90092,197714
2025-02-25 10:46:12.862,96777,15790,20794,3,90051,197634
2025-02-25 10:46:13.069,96802,15779,20780,4,90151,197805
2025-02-25 10:46:13.072,96999,15829,20855,5,90382,198270
2025-02-25 10:46:13.296,97089,15848,20896,2,90421,198360
2025-02-25 10:46:13.298,97100,15808,20845,4,90359,198249
2025-02-25 10:46:13.319,96765,15788,20806,4,90115,197697
2025-02-25 10:46:13.479,96822,15821,20834,7,90081,197595
2025-02-25 10:46:13.523,96664,15835,20827,5,90074,197597
2025-02-25 10:46:13.629,96842,15871,20877,4,90175,197828
2025-02-25 10:46:13.833,96906,15857,20866,3,90163,197818
2025-02-25 10:46:13.836,96781,15805,20802,1,89960,197457
2025-02-25 10:46:13.993,96675,15786,20783,5,89836,197235
2025-02-25 10:46:14.022,96720,15792,20801,5,89852,197277
2025-02-25 10:46:14.259,96765,15824,20830,3,90024,197602
2025-02-25 10:46:14.262,96914,15872,20901,4,90212,198003
2025-02-25 10:46:14.405,97009,15883,20928,5,90251,198045
2025-02-25 10:46:14.415,97062,15849,20901,5,90216,197947
2025-02-25 10:46:14.597,96854,15839,20883,8,90054,197600
2025-02-25 10:46:14.619,96750,15842,20863,6,89951,197381
2025-02-25 10:46:14.814,96770,15885,20893,6,90028,197537
2025-02-25 10:46:14.818,96938,15971,21009,4,90192,197903
2025-02-25 10:46:14.996,96923,15957,20985,6,90092,197787
2025-02-25 10:46:15.011,96834,15898,20913,6,89899,197455
2025-02-25 10:46:15.150,96712,15881,20888,5,89771,197157
2025-02-25 10:46:15.344,96793,15885,20898,7,89813,197240
2025-02-25 10:46:15.346,96779,15894,20903,6,89838,197267
2025-02-25 10:46:15.495,96936,15934,20967,5,89994,197583
2025-02-25 10:46:15.515,97082,15923,20970,4,90064,197775
2025-02-25 10:46:15.680,96893,15860,20867,6,89902,197485
2025-02-25 10:46:15.714,96811,15874,20878,5,89818,197201
2025-02-25 10:46:15.827,96689,15877,20862,6,89717,196989
2025-02-25 10:46:16.074,96645,15886,20865,4,89691,196981
2025-02-25 10:46:16.076,96905,15949,20944,8,89881,197408
2025-02-25 10:46:16.107,97049,15946,20963,3,89916,197520
2025-02-25 10:46:16.243,96772,15887,20857,4,89662,197088
2025-02-25 10:46:16.456,96646,15867,20808,4,89561,196869
2025-02-25 10:46:16.459,96737,15867,20813,4,89616,196956
2025-02-25 10:46:16.603,96690,15891,20835,4,89721,197129
2025-02-25 10:46:16.610,96975,15964,20947,4,89995,197702
2025-02-25 10:46:16.794,97201,15974,20984,5,90121,197944
2025-02-25 10:46:16.811,97027,15925,20909,4,89965,197642
2025-02-25 10:46:16.949,96740,15929,20879,4,89776,197157
2025-02-25 10:46:17.139,96690,15926,20847,9,89690,196996
2025-02-25 10:46:17.142,96727,15949,20875,6,89764,197216
2025-02-25 10:46:17.285,96947,16007,20956,7,89881,197487
2025-02-25 10:46:17.303,96974,15981,20932,5,89823,197400
2025-02-25 10:46:17.481,96769,15944,20874,3,89577,196970
2025-02-25 10:46:17.506,96714,15935,20864,2,89505,196815
2025-02-25 10:46:17.637,96741,15935,20850,4,89602,196963
2025-02-25 10:46:17.885,96761,15951,20865,5,89728,197179
2025-02-25 10:46:17.888,96922,15989,20933,5,89853,197481
2025-02-25 10:46:17.906,97080,15972,20928,3,89903,197596
2025-02-25 10:46:18.028,96981,15932,20863,4,89797,197390
2025-02-25 10:46:18.215,96816,15937,20861,6,89664,197022
2025-02-25 10:46:18.218,96567,15955,20843,5,89516,196717
2025-02-25 10:46:18.444,96661,15990,20866,4,89632,197037
2025-02-25 10:46:18.446,96936,16043,20954,4,89793,197409
2025-02-25 10:46:18.491,96892,16008,20919,6,89665,197145
2025-02-25 10:46:18.633,96735,15963,20846,5,89495,196845
2025-02-25 10:46:18.777,96710,15956,20845,3,89451,196753
2025-02-25 10:46:18.795,96781,15965,20854,4,89549,196948
2025-02-25 10:46:18.974,96789,15979,20854,5,89678,197231
2025-02-25 10:46:18.982,97019,16021,20922,3,89861,197641
2025-02-25 10:46:19.134,97169,16002,20923,3,89898,197721
2025-02-25 10:46:19.321,96965,15948,20837,6,89745,197384
2025-02-25 10:46:19.324,96778,15974,20849,4,89594,196939
2025-02-25 10:46:19.528,96647,15993,20854,7,89506,196780
2025-02-25 10:46:19.529,96652,16016,20848,7,89560,197012
2025-02-25 10:46:19.717,96872,16050,20884,5,89693,197304
2025-02-25 10:46:19.720,96895,16007,20831,4,89602,197139
2025-02-25 10:46:19.860,96753,15967,20763,6,89446,196854
2025-02-25 10:46:19.879,96798,15959,20766,5,89445,196834
2025-02-25 10:46:20.117,96732,15952,20757,5,89446,196832
2025-02-25 10:46:20.119,96813,15989,20796,6,89632,197205
2025-02-25 10:46:20.259,96938,16029,20835,5,89808,197590
2025-02-25 10:46:20.282,97128,16006,20802,4,89862,197698
2025-02-25 10:46:20.439,96846,15951,20711,5,89633,197208
2025-02-25 10:46:20.482,96753,15971,20724,10,89520,196887
2025-02-25 10:46:20.587,96633,15991,20726,6,89506,196859
2025-02-25 10:46:20.770,96817,16057,20800,5,89739,197351
2025-02-25 10:46:20.775,96983,16124,20883,7,89869,197659
2025-02-25 10:46:20.929,96841,16050,20761,7,89653,197261
2025-02-25 10:46:20.975,96618,15996,20662,6,89394,196795
2025-02-25 10:46:21.175,96706,15992,20655,6,89369,196750
2025-02-25 10:46:21.178,96685,15997,20661,3,89434,196824
2025-02-25 10:46:21.319,96711,16012,20666,6,89497,196937
2025-02-25 10:46:21.506,96914,16063,20743,4,89611,197217
2025-02-25 10:46:21.509,96953,16027,20698,4,89646,197291
2025-02-25 10:46:21.729,96697,15988,20599,3,89457,196888
2025-02-25 10:46:21.731,96758,15986,20612,7,89423,196777
2025-02-25 10:46:21.770,96561,15986,20598,5,89390,196679
2025-02-25 10:46:21.909,96804,16039,20664,6,89656,197203
2025-02-25 10:46:22.056,96944,16079,20729,6,89753,197411
2025-02-25 10:46:22.071,96857,16023,20657,7,89537,197061
2025-02-25 10:46:22.243,96673,15982,20561,3,89362,196747
2025-02-25 10:46:22.274,96650,15950,20508,4,89334,196649
2025-02-25 10:46:22.392,96664,15955,20520,3,89522,196950
2025-02-25 10:46:22.581,96910,16041,20635,5,89840,197557
2025-02-25 10:46:22.584,97117,16077,20705,6,89956,197811
2025-02-25 10:46:22.727,97046,16030,20647,4,89833,197603
2025-02-25 10:46:22.769,96794,16044,20634,9,89717,197211
2025-02-25 10:46:22.961,96668,16032,20579,5,89664,197057
2025-02-25 10:46:22.967,96518,16029,20525,4,89566,196902
2025-02-25 10:46:23.112,96677,16098,20606,6,89666,197129
2025-02-25 10:46:23.288,96761,16085,20594,6,89627,197096
2025-02-25 10:46:23.291,96719,16034,20542,5,89496,196879
2025-02-25 10:46:23.511,96530,16009,20512,5,89336,196526
2025-02-25 10:46:23.513,96534,15987,20472,6,89354,196547
2025-02-25 10:46:23.694,96562,15972,20445,4,89550,196869
2025-02-25 10:46:23.697,96829,16031,20556,6,89844,197467
2025-02-25 10:46:23.835,97058,16071,20634,6,89979,197741
2025-02-25 10:46:23.863,97003,16027,20584,6,89936,197608
2025-02-25 10:46:24.029,96820,16045,20597,6,89802,197201
2025-02-25 10:46:24.063,96543,16042,20547,5,89627,196827
2025-02-25 10:46:24.172,96557,16069,20541,2,89768,197095
2025-02-25 10:46:24.355,96831,16122,20629,5,89975,197547
2025-02-25 10:46:24.366,96817,16089,20599,7,89878,197315
2025-02-25 10:46:24.569,96630,16037,20519,7,89631,196876
2025-02-25 10:46:24.571,96512,16038,20522,8,89508,196587
2025-02-25 10:46:24.742,96488,16023,20495,7,89525,196629
2025-02-25 10:46:24.771,96494,16005,20454,8,89634,196808
2025-02-25 10:46:24.905,96704,16024,20503,2,89840,197186
2025-02-25 10:46:25.090,96849,16001,20494,5,89870,197290
2025-02-25 10:46:25.093,96751,15946,20421,10,89758,197063
2025-02-25 10:46:25.252,96603,15950,20422,4,89589,196623
2025-02-25 10:46:25.263,96423,15939,20374,6,89501,196432
2025-02-25 10:46:25.429,96471,15939,20355,5,89574,196589
2025-02-25 10:46:25.463,96605,15954,20389,4,89649,196713
2025-02-25 10:46:25.581,96726,15911,20363,5,89653,196803
2025-02-25 10:46:25.761,96482,15864,20308,3,89402,196304
2025-02-25 10:46:25.764,96491,15845,20285,7,89386,196250
2025-02-25 10:46:25.914,96495,15850,20276,3,89546,196514
2025-02-25 10:46:25.956,96683,15912,20344,4,89862,197139
2025-02-25 10:46:26.104,96824,15958,20424,4,89991,197409
2025-02-25 10:46:26.251,96880,15918,20382,5,89960,197309
2025-02-25 10:46:26.259,96599,15903,20350,7,89768,196800
2025-02-25 10:46:26.527,96592,15942,20382,6,89815,196803
2025-02-25 10:46:26.530,96369,15972,20391,6,89749,196677
2025-02-25 10:46:26.559,96610,16050,20476,4,89950,197184
2025-02-25 10:46:26.669,96697,16067,20493,7,89946,197158
2025-02-25 10:46:26.847,96613,16008,20416,6,89769,196800
2025-02-25 10:46:26.850,96336,15983,20357,8,89547,196335
2025-02-25 10:46:27.075,96398,15992,20384,6,89539,196324
2025-02-25 10:46:27.077,96427,16010,20405,6,89696,196703
2025-02-25 10:46:27.257,96544,16079,20480,5,89848,197123
2025-02-25 10:46:27.259,96757,16102,20517,6,89940,197348
2025-02-25 10:46:27.402,96744,16043,20458,5,89855,197151
2025-02-25 10:46:27.585,96448,16045,20438,4,89669,196654
2025-02-25 10:46:27.588,96489,16076,20464,6,89596,196493
2025-02-25 10:46:27.730,96287,16093,20470,6,89508,196402
2025-02-25 10:46:27.747,96445,16130,20516,4,89536,196558
2025-02-25 10:46:27.919,96593,16116,20493,3,89573,196663
