Timestamp,PPG1,PPG2,PPG3,PPG4,PPG5,PPG6
2025-02-25 09:52:57.252,39,48,45,20,89,82
2025-02-25 09:52:58.235,28,42,43,15,100,81
2025-02-25 09:52:59.291,31,42,51,13,83,70
2025-02-25 09:52:59.301,26,35,40,10,75,75
2025-02-25 09:52:59.334,27,32,37,4,71,71
2025-02-25 09:52:59.491,15,37,33,1,75,73
2025-02-25 09:52:59.493,6,22,34,1,67,74
2025-02-25 09:52:59.495,41,15,28,1,69,66
2025-02-25 09:52:59.497,0,45,17,0,69,59
2025-02-25 09:52:59.498,51,4,45,0,66,57
2025-02-25 09:52:59.500,57,45,4,16,57,56
2025-02-25 09:52:59.502,59,69,29,10,34,46
2025-02-25 09:52:59.503,54,67,67,4,60,33
2025-02-25 09:52:59.505,53,71,64,29,20,56
2025-02-25 09:52:59.506,46,59,66,33,89,6
2025-02-25 09:52:59.508,28,56,61,35,100,70
2025-02-25 09:52:59.512,43,62,62,29,105,90
2025-02-25 09:52:59.518,52,62,48,22,98,95
2025-02-25 09:52:59.520,38,66,67,16,92,91
2025-02-25 09:52:59.522,57,55,58,13,94,82
2025-02-25 09:52:59.523,34,52,56,25,99,82
2025-02-25 09:52:59.525,39,51,53,21,91,71
2025-02-25 09:52:59.527,33,46,60,17,88,73
2025-02-25 09:52:59.529,34,49,47,12,89,78
2025-02-25 09:52:59.531,26,43,47,10,87,82
2025-02-25 09:52:59.612,25,39,41,11,88,75
2025-02-25 09:52:59.614,30,31,36,11,79,70
2025-02-25 09:52:59.616,21,38,36,5,80,70
2025-02-25 09:52:59.618,7,28,35,1,73,66
2025-02-25 09:52:59.619,34,24,32,2,74,62
2025-02-25 09:52:59.622,4,22,22,1,68,54
2025-02-25 09:52:59.623,17,34,13,0,68,54
2025-02-25 09:52:59.625,59,10,44,0,63,58
2025-02-25 09:52:59.627,56,62,4,26,47,50
2025-02-25 09:52:59.629,62,66,53,2,61,43
2025-02-25 09:52:59.631,58,74,69,9,30,30
2025-02-25 09:52:59.633,44,66,74,32,36,51
2025-02-25 09:52:59.634,45,55,68,27,96,17
2025-02-25 09:52:59.636,48,58,57,33,101,83
2025-02-25 09:52:59.638,49,53,60,17,103,89
2025-02-25 09:52:59.640,50,50,57,18,92,99
2025-02-25 09:52:59.644,44,71,59,17,92,84
2025-02-25 09:52:59.757,42,66,65,23,81,81
2025-02-25 09:52:59.797,39,64,47,26,82,78
2025-02-25 09:52:59.904,35,45,56,10,95,77
2025-02-25 09:53:00.062,33,39,46,19,93,80
2025-02-25 09:53:00.086,27,50,43,11,88,87
2025-02-25 09:53:00.209,28,41,52,12,87,68
2025-02-25 09:53:00.383,25,34,38,10,77,69
2025-02-25 09:53:00.385,20,32,37,5,78,66
2025-02-25 09:53:00.512,18,38,30,3,75,64
2025-02-25 09:53:00.651,6,25,34,1,70,75
2025-02-25 09:53:00.674,38,14,30,2,68,61
2025-02-25 09:53:00.798,0,46,16,0,70,60
2025-02-25 09:53:00.941,40,4,39,0,62,56
2025-02-25 09:53:00.977,61,32,15,1,55,55
2025-02-25 09:53:01.065,58,67,24,9,41,47
2025-02-25 09:53:01.225,61,105,71,2,83,62
2025-02-25 09:53:01.269,1158,1194,462,24,3497,2055
2025-02-25 09:53:01.369,8058,18792,6412,27,68698,39221
2025-02-25 09:53:01.528,12770,29563,12764,35,111915,63371
2025-02-25 09:53:01.570,52418,76599,40617,20,268384,150292
2025-02-25 09:53:01.691,107703,119881,75107,6,427340,234688
2025-02-25 09:53:01.852,140418,142735,97993,5,536835,291060
2025-02-25 09:53:01.861,155852,144216,102290,4,550106,296415
2025-02-25 09:53:02.021,198035,160708,118540,5,577352,333195
2025-02-25 09:53:02.065,257582,184805,143606,5,582022,396632
2025-02-25 09:53:02.201,247083,169637,130915,4,582489,370965
2025-02-25 09:53:02.265,264222,178024,139634,5,582535,382755
2025-02-25 09:53:02.581,312493,224582,183847,4,582540,479344
2025-02-25 09:53:02.584,241296,228168,163272,4,582541,556249
2025-02-25 09:53:02.586,143753,72338,55804,6,580413,415093
2025-02-25 09:53:02.729,147696,55885,40437,5,522769,363026
2025-02-25 09:53:02.757,144963,53560,34339,5,453229,325522
2025-02-25 09:53:03.002,141129,51092,31304,6,414468,301442
2025-02-25 09:53:03.006,139536,50549,29795,6,400517,293912
2025-02-25 09:53:03.175,138045,52356,30833,7,399399,294710
2025-02-25 09:53:03.177,138354,55982,33235,6,414441,307174
2025-02-25 09:53:03.335,139405,57664,35339,6,432989,320940
2025-02-25 09:53:03.348,138753,55132,34192,6,422538,311874
2025-02-25 09:53:03.469,135757,50919,30982,3,400159,294559
2025-02-25 09:53:03.628,132756,49898,29751,6,392056,289033
2025-02-25 09:53:03.652,134993,50909,29765,6,393994,292103
2025-02-25 09:53:03.756,136443,54068,31580,3,406232,302314
2025-02-25 09:53:03.928,138065,57632,34512,3,435671,325332
2025-02-25 09:53:03.944,139385,57900,35848,7,455153,339014
2025-02-25 09:53:04.114,139562,56118,35713,6,451232,334280
2025-02-25 09:53:04.145,139603,55074,35375,3,440275,325247
2025-02-25 09:53:04.311,138361,54519,35652,4,442162,325499
2025-02-25 09:53:04.345,135084,51727,35091,4,446206,325134
2025-02-25 09:53:04.448,134843,50021,34576,4,443179,321056
2025-02-25 09:53:04.618,135054,49260,34214,5,437682,316270
2025-02-25 09:53:04.636,135107,49092,34231,7,434981,313682
2025-02-25 09:53:04.759,135122,49445,34602,5,434767,313063
2025-02-25 09:53:04.986,135262,49756,34916,7,434832,312858
2025-02-25 09:53:04.988,135508,49982,35189,3,435288,312990
2025-02-25 09:53:05.113,135776,50219,35402,2,435021,312686
2025-02-25 09:53:05.140,134954,49066,34690,5,433410,310685
2025-02-25 09:53:05.266,134025,47915,34087,9,432811,309102
2025-02-25 09:53:05.402,133923,47876,34312,5,434026,309462
2025-02-25 09:53:05.443,133652,47576,34390,4,434767,309395
2025-02-25 09:53:05.561,133657,47510,34543,6,435155,309254
2025-02-25 09:53:05.709,134019,47871,34878,5,435723,309649
2025-02-25 09:53:05.735,134440,48242,35162,4,436259,310188
2025-02-25 09:53:05.917,134758,48581,35383,6,436392,310501
2025-02-25 09:53:05.935,134987,49001,35671,6,436881,310987
2025-02-25 09:53:06.041,132614,47547,35127,5,437132,309602
2025-02-25 09:53:06.201,130772,45860,34331,6,435994,306776
2025-02-25 09:53:06.235,131065,45815,34381,6,436480,306812
2025-02-25 09:53:06.339,131296,45799,34410,5,436757,306948
2025-02-25 09:53:06.492,131411,45941,34607,3,437505,307275
2025-02-25 09:53:06.528,131460,46185,34926,6,438062,307396
2025-02-25 09:53:06.678,131476,46385,35220,6,438783,307684
2025-02-25 09:53:06.719,131851,46600,35474,5,439697,308395
2025-02-25 09:53:06.844,131633,46704,35771,5,440950,309032
2025-02-25 09:53:06.982,129581,45224,34969,4,440121,306933
2025-02-25 09:53:07.024,129714,44664,34393,4,438697,305561
2025-02-25 09:53:07.157,131482,45270,34780,4,441546,308416
2025-02-25 09:53:07.297,131080,45213,34928,4,442148,308435
2025-02-25 09:53:07.323,130847,45418,35083,6,441632,307801
2025-02-25 09:53:07.516,131557,46018,35333,4,440937,307805
2025-02-25 09:53:07.518,132026,46573,35673,4,441332,308523
2025-02-25 09:53:07.638,131433,46623,35912,3,442374,308804
2025-02-25 09:53:07.798,129868,45333,35085,5,441348,307050
2025-02-25 09:53:07.815,129201,44639,34511,7,440304,305540
2025-02-25 09:53:07.933,129747,45066,34697,4,440185,305679
2025-02-25 09:53:08.119,129665,45108,34661,6,439903,305409
2025-02-25 09:53:08.122,129729,45363,34881,4,440948,306107
2025-02-25 09:53:08.267,129943,45697,35154,6,441343,306377
2025-02-25 09:53:08.312,130809,46153,35337,6,441365,306926
2025-02-25 09:53:08.425,132321,46693,35345,9,441195,308176
2025-02-25 09:53:08.618,130832,45460,34369,6,439840,306584
2025-02-25 09:53:08.621,130598,45372,34138,6,439068,305784
2025-02-25 09:53:08.785,130850,45878,34370,3,439263,306170
2025-02-25 09:53:08.810,130365,45891,34426,5,439583,306059
2025-02-25 09:53:08.929,130513,46195,34680,6,440310,306486
2025-02-25 09:53:09.099,130848,46655,35030,6,440987,307094
2025-02-25 09:53:09.113,131065,46978,35272,5,441380,307414
2025-02-25 09:53:09.310,130888,46975,35216,3,441125,307278
2025-02-25 09:53:09.312,128515,45351,34068,5,439524,304743
2025-02-25 09:53:09.469,128256,45082,33717,5,439085,304067
2025-02-25 09:53:09.506,128353,45380,33876,2,439991,304770
2025-02-25 09:53:09.613,128225,45390,33862,4,440055,304608
2025-02-25 09:53:09.790,128778,45848,34082,6,440292,305083
2025-02-25 09:53:09.805,129217,46387,34458,5,441165,306008
2025-02-25 09:53:09.929,129308,46623,34706,3,441568,306270
2025-02-25 09:53:10.191,129662,46951,34958,4,442106,306906
2025-02-25 09:53:10.193,128275,45919,34225,6,441162,305573
2025-02-25 09:53:10.197,127106,45003,33472,4,440228,304056
2025-02-25 09:53:10.335,127056,45169,33580,6,440645,304142
2025-02-25 09:53:10.507,127107,45246,33561,6,440404,303957
2025-02-25 09:53:10.510,127632,45611,33700,4,440282,304188
2025-02-25 09:53:10.645,128290,46180,34028,6,440600,304879
2025-02-25 09:53:10.693,128687,46644,34342,4,440994,305491
2025-02-25 09:53:10.818,128672,46926,34702,5,442793,306710
2025-02-25 09:53:10.962,128800,47131,34948,6,443282,306994
2025-02-25 09:53:10.993,127656,46550,34558,7,442867,306277
2025-02-25 09:53:11.127,125772,45253,33613,2,442126,304381
2025-02-25 09:53:11.305,126276,45472,33641,3,441802,304270
2025-02-25 09:53:11.307,126405,45659,33677,8,441381,304134
2025-02-25 09:53:11.467,126633,45892,33759,5,441158,304131
2025-02-25 09:53:11.485,127232,46438,34099,3,441266,304619
2025-02-25 09:53:11.608,127581,46895,34424,4,441535,305097
2025-02-25 09:53:11.774,127846,47258,34676,5,441700,305481
2025-02-25 09:53:11.788,128148,47671,34972,5,442057,305975
2025-02-25 09:53:11.981,127087,47147,34582,4,441774,305416
2025-02-25 09:53:11.989,125689,46130,33807,4,441228,304065
2025-02-25 09:53:12.147,126189,46321,33932,6,441493,304362
2025-02-25 09:53:12.180,126397,46501,34036,4,441521,304553
2025-02-25 09:53:12.291,126786,46757,34198,6,441574,304792
2025-02-25 09:53:12.469,127444,47273,34615,6,442051,305529
2025-02-25 09:53:12.481,127772,47695,35016,6,442788,306286
2025-02-25 09:53:12.611,127926,47928,35265,5,442940,306456
2025-02-25 09:53:12.783,128004,48125,35460,3,443236,306846
2025-02-25 09:53:12.785,126078,46803,34469,4,442443,305305
2025-02-25 09:53:12.965,125709,46251,34032,6,442130,304558
2025-02-25 09:53:12.976,126105,46434,34164,5,442247,304800
2025-02-25 09:53:13.125,126174,46490,34224,5,442346,304900
2025-02-25 09:53:13.265,126675,46820,34485,5,442570,305325
2025-02-25 09:53:13.276,127377,47315,34879,3,442966,306052
2025-02-25 09:53:13.445,127849,47742,35223,5,443301,306663
2025-02-25 09:53:13.477,127907,47965,35540,5,444200,307302
2025-02-25 09:53:13.662,128389,48311,35846,4,444551,307820
2025-02-25 09:53:13.680,127332,47749,35378,3,444166,307251
2025-02-25 09:53:13.835,125637,46455,34363,4,444008,305922
2025-02-25 09:53:13.867,126008,46418,34259,3,443843,305797
2025-02-25 09:53:13.981,126125,46566,34317,2,443910,305985
2025-02-25 09:53:14.155,126041,46616,34411,4,444579,306303
2025-02-25 09:53:14.172,126671,47008,34726,4,445029,306958
2025-02-25 09:53:14.299,127091,47416,35066,4,445575,307621
2025-02-25 09:53:14.474,127329,47705,35327,4,445980,308099
2025-02-25 09:53:14.476,127587,47993,35572,4,446225,308420
2025-02-25 09:53:14.616,127968,48389,35862,5,446573,308987
2025-02-25 09:53:14.663,126480,47530,35046,5,445483,307680
2025-02-25 09:53:14.834,125705,46635,34065,6,444138,306174
2025-02-25 09:53:14.863,126500,46934,34085,5,443686,306371
2025-02-25 09:53:14.967,126964,47213,34086,4,443323,306604
2025-02-25 09:53:15.140,127409,47541,34219,6,443362,307001
2025-02-25 09:53:15.168,127792,48010,34525,7,443222,307235
2025-02-25 09:53:15.334,128357,48540,34781,7,442699,307407
2025-02-25 09:53:15.359,128823,49001,35006,5,442533,307768
2025-02-25 09:53:15.495,129239,49408,35244,3,442706,308307
2025-02-25 09:53:15.639,127771,48414,34410,3,441624,306928
2025-02-25 09:53:15.664,127192,47724,33853,4,441013,305918
2025-02-25 09:53:15.814,127708,47987,34047,7,441355,306375
2025-02-25 09:53:15.851,127676,47976,34039,3,441397,306390
2025-02-25 09:53:15.953,128115,48220,34204,6,441505,306649
2025-02-25 09:53:16.135,128737,48742,34591,5,442025,307435
2025-02-25 09:53:16.155,128996,49107,34888,4,442323,307849
2025-02-25 09:53:16.275,129045,49360,35117,5,442811,308273
2025-02-25 09:53:16.486,127472,48289,34283,3,442068,307036
2025-02-25 09:53:16.488,126353,47183,33435,2,441426,305677
2025-02-25 09:53:16.615,126492,47241,33514,3,441668,305752
2025-02-25 09:53:16.647,126541,47235,33511,4,441706,305784
2025-02-25 09:53:16.785,126746,47435,33661,3,442073,306190
2025-02-25 09:53:16.928,127215,47837,34047,5,442841,306975
2025-02-25 09:53:16.946,127717,48170,34357,4,443085,307412
2025-02-25 09:53:17.182,128076,48446,34607,5,443249,307780
2025-02-25 09:53:17.184,127276,47929,34196,7,442603,307176
2025-02-25 09:53:17.324,125711,46512,33064,9,441225,305255
2025-02-25 09:53:17.350,126045,46456,33045,4,441276,305278
2025-02-25 09:53:17.500,126291,46553,33173,5,441406,305513
2025-02-25 09:53:17.543,126430,46594,33257,4,441508,305637
2025-02-25 09:53:17.643,126918,46960,33619,4,442022,306254
2025-02-25 09:53:17.810,127414,47373,33996,6,442556,306968
2025-02-25 09:53:17.841,127788,47665,34274,3,442975,307517
2025-02-25 09:53:17.944,127600,47586,34271,6,443090,307622
2025-02-25 09:53:18.129,125614,45993,33073,5,441717,305549
2025-02-25 09:53:18.146,125604,45679,32859,5,441834,305331
2025-02-25 09:53:18.321,125977,45899,33068,4,442217,305776
2025-02-25 09:53:18.346,125947,45858,33095,5,442407,305837
2025-02-25 09:53:18.500,126302,46121,33405,3,443082,306408
2025-02-25 09:53:18.539,126744,46506,33765,2,443404,306891
2025-02-25 09:53:18.691,127115,46800,34018,5,443515,307221
2025-02-25 09:53:18.737,127517,47012,34185,3,443808,307762
2025-02-25 09:53:18.853,125934,45800,33213,4,442476,306163
2025-02-25 09:53:18.998,125144,45237,32747,5,441509,304887
2025-02-25 09:53:19.038,125709,45664,32866,4,440139,304401
2025-02-25 09:53:19.167,125883,45889,32908,5,439666,304404
2025-02-25 09:53:19.309,126204,46236,33151,2,439865,304731
2025-02-25 09:53:19.330,126755,46713,33520,3,440358,305388
2025-02-25 09:53:19.486,127519,47231,33795,6,440098,305772
2025-02-25 09:53:19.533,127815,47523,33907,6,439910,306101
2025-02-25 09:53:19.634,126140,46210,32884,5,438440,304337
2025-02-25 09:53:19.800,126051,45955,32639,4,438206,303911
2025-02-25 09:53:19.833,126639,46422,32915,4,438495,304481
2025-02-25 09:53:19.990,126714,46557,32984,2,438511,304561
2025-02-25 09:53:20.033,127294,47000,33285,6,438821,305058
2025-02-25 09:53:20.157,127874,47576,33685,4,439102,305630
2025-02-25 09:53:20.336,128350,48078,34022,6,439431,306228
2025-02-25 09:53:20.339,128165,48108,34019,3,439248,306181
2025-02-25 09:53:20.582,126495,46823,33009,2,437891,304357
2025-02-25 09:53:20.584,126788,46893,33010,3,437970,304376
2025-02-25 09:53:20.629,126956,47211,33257,4,438438,304795
2025-02-25 09:53:20.729,126730,47222,33287,3,438714,304817
2025-02-25 09:53:20.895,127056,47547,33598,6,439342,305284
2025-02-25 09:53:20.929,127448,47987,33957,3,439825,305843
2025-02-25 09:53:21.039,127590,48305,34186,5,440143,306264
2025-02-25 09:53:21.222,125758,47187,33321,2,439258,304802
2025-02-25 09:53:21.225,125138,46584,32822,4,438922,303942
2025-02-25 09:53:21.371,125524,46917,33102,4,439545,304507
2025-02-25 09:53:21.543,125214,46885,33130,2,439802,304495
2025-02-25 09:53:21.545,125219,47027,33331,4,440274,304646
2025-02-25 09:53:21.729,125611,47427,33677,4,440638,305111
2025-02-25 09:53:21.731,125980,47804,33974,7,441076,305688
2025-02-25 09:53:21.906,125900,47869,34007,3,441271,305968
2025-02-25 09:53:21.925,123903,46423,32769,4,439815,303998
2025-02-25 09:53:22.051,123795,46041,32426,4,439562,303522
2025-02-25 09:53:22.278,124043,46187,32554,5,439746,303725
2025-02-25 09:53:22.281,124092,46190,32576,3,439701,303723
2025-02-25 09:53:22.327,124710,46548,32858,3,439879,304148
2025-02-25 09:53:22.429,125427,47066,33259,3,440241,304892
2025-02-25 09:53:22.587,125950,47455,33565,5,440446,305408
2025-02-25 09:53:22.628,126071,47593,33676,5,440307,305548
2025-02-25 09:53:22.729,124157,46201,32552,3,438873,303685
2025-02-25 09:53:22.909,123914,45736,32216,4,438617,303140
2025-02-25 09:53:22.920,124287,45904,32407,5,438928,303442
2025-02-25 09:53:23.056,124372,45922,32475,4,439002,303526
2025-02-25 09:53:23.223,124952,46282,32790,5,439346,304041
2025-02-25 09:53:23.226,125607,46798,33193,5,439530,304598
2025-02-25 09:53:23.411,126025,47227,33510,3,439654,305046
2025-02-25 09:53:23.416,126393,47617,33795,7,439696,305370
2025-02-25 09:53:23.583,125351,47064,33337,5,438729,304411
2025-02-25 09:53:23.616,124069,45838,32315,7,437146,302497
2025-02-25 09:53:23.728,124776,46060,32429,6,437075,302733
2025-02-25 09:53:23.959,125058,46286,32561,5,436952,302895
2025-02-25 09:53:23.961,125321,46493,32696,4,436944,303019
2025-02-25 09:53:24.007,125974,47008,33083,2,437326,303661
2025-02-25 09:53:24.107,126431,47460,33409,4,437551,304151
2025-02-25 09:53:24.274,126826,47847,33671,5,437774,304613
2025-02-25 09:53:24.310,125889,47363,33270,6,437189,303928
2025-02-25 09:53:24.431,124564,46255,32392,3,436148,302330
2025-02-25 09:53:24.610,125109,46479,32559,5,436518,302707
2025-02-25 09:53:24.613,125158,46609,32647,5,436799,302964
2025-02-25 09:53:24.753,125305,46737,32750,5,437110,303198
2025-02-25 09:53:24.924,125872,47208,33105,3,437702,303932
2025-02-25 09:53:24.926,126241,47638,33431,2,438113,304484
2025-02-25 09:53:25.115,126472,47990,33704,5,438786,305172
2025-02-25 09:53:25.117,124864,47104,33006,4,438521,304234
2025-02-25 09:53:25.283,123549,45840,31922,7,437691,302680
2025-02-25 09:53:25.307,124075,45972,31928,4,437672,302847
2025-02-25 09:53:25.426,124263,46191,32000,4,437700,303107
2025-02-25 09:53:25.599,123642,46287,32087,5,437290,302603
2025-02-25 09:53:25.606,123475,46685,32340,5,436977,302497
2025-02-25 09:53:25.747,124106,47104,32668,4,437886,303447
2025-02-25 09:53:25.922,124462,47386,32908,4,438360,303986
2025-02-25 09:53:25.925,124858,47634,33078,3,438795,304621
2025-02-25 09:53:26.064,123232,46332,31897,3,437628,303126
2025-02-25 09:53:26.099,123081,45783,31378,4,436994,302410
2025-02-25 09:53:26.251,123677,46093,31590,4,437216,302936
2025-02-25 09:53:26.393,123764,46174,31646,4,437157,302993
2025-02-25 09:53:26.403,124249,46535,31901,3,437264,303373
2025-02-25 09:53:26.567,125017,47147,32344,5,437753,304268
2025-02-25 09:53:26.602,125456,47582,32724,4,438379,305018
2025-02-25 09:53:26.711,125799,47863,33009,6,438696,305428
2025-02-25 09:53:26.991,125920,48089,33215,4,438989,305817
2025-02-25 09:53:26.994,124067,46682,32028,3,437562,303984
2025-02-25 09:53:26.997,123844,46154,31537,4,436909,303293
2025-02-25 09:53:27.207,124347,46500,31790,5,437132,303724
2025-02-25 09:53:27.211,124337,46551,31856,8,437372,303902
2025-02-25 09:53:27.601,124611,46765,32106,4,437903,304323
2025-02-25 09:53:27.605,125012,47178,32534,7,438607,304983
2025-02-25 09:53:27.608,125270,47486,32860,6,439125,305472
2025-02-25 09:53:27.612,125428,47727,33142,5,439739,305956
2025-02-25 09:53:27.800,125643,47913,33392,4,440338,306416
2025-02-25 09:53:27.803,124276,46858,32433,1,439181,305112
2025-02-25 09:53:28.023,123738,46116,31750,7,438373,304087
2025-02-25 09:53:28.026,124309,46471,31995,3,438505,304470
2025-02-25 09:53:28.164,124436,46625,32059,6,438405,304580
2025-02-25 09:53:28.190,124952,46954,32282,4,438422,304893
2025-02-25 09:53:28.371,125691,47561,32720,5,438501,305464
2025-02-25 09:53:28.374,126303,48086,33065,5,438544,306009
2025-02-25 09:53:28.576,126869,48577,33377,4,438488,306463
2025-02-25 09:53:28.578,127158,48912,33575,5,438503,306859
2025-02-25 09:53:28.747,125481,47624,32527,4,437106,305140
2025-02-25 09:53:28.773,125350,47218,32235,5,436709,304593
2025-02-25 09:53:28.893,125848,47584,32540,5,436987,305059
2025-02-25 09:53:29.078,125881,47646,32571,4,436683,304943
2025-02-25 09:53:29.080,126401,48017,32842,3,436673,305229
2025-02-25 09:53:29.276,127029,48630,33268,4,436868,305866
2025-02-25 09:53:29.278,126962,48933,33638,2,437520,306260
2025-02-25 09:53:29.447,126506,48670,33539,3,437279,305838
2025-02-25 09:53:29.457,124215,47182,32421,2,434855,303007
2025-02-25 09:53:29.585,124402,47227,32370,5,434334,302696
2025-02-25 09:53:29.765,124908,47555,32608,3,434750,303320
2025-02-25 09:53:29.768,124816,47542,32626,2,434662,303232
2025-02-25 09:53:29.907,125307,47930,32945,6,435117,303787
2025-02-25 09:53:30.079,125811,48370,33335,7,435869,304569
2025-02-25 09:53:30.082,125698,48427,33441,6,436082,304729
2025-02-25 09:53:30.277,123628,46815,32284,4,434839,302794
2025-02-25 09:53:30.279,123301,46277,31950,6,434694,302172
2025-02-25 09:53:30.482,123626,46501,32173,3,435079,302571
2025-02-25 09:53:30.486,123535,46441,32159,2,434949,302408
2025-02-25 09:53:30.624,123916,46723,32410,4,435204,302761
2025-02-25 09:53:30.656,124438,47165,32780,7,435500,303296
2025-02-25 09:53:30.905,124793,47514,33053,4,435724,303756
2025-02-25 09:53:30.908,123191,46430,32233,2,434714,302445
2025-02-25 09:53:31.044,121967,45249,31337,5,433815,300884
2025-02-25 09:53:31.056,122265,45300,31384,6,434031,301054
2025-02-25 09:53:31.224,122252,45315,31428,6,434238,301199
2025-02-25 09:53:31.260,122370,45441,31533,7,434371,301275
2025-02-25 09:53:31.362,122932,45840,31857,7,434753,301835
2025-02-25 09:53:31.543,123305,46212,32159,6,435164,302414
2025-02-25 09:53:31.552,123243,46286,32221,4,435294,302597
2025-02-25 09:53:31.689,121340,44857,31066,4,434189,300882
2025-02-25 09:53:31.862,121103,44435,30676,5,433982,300360
2025-02-25 09:53:31.865,121459,44643,30825,4,434325,300743
2025-02-25 09:53:32.063,121466,44708,30850,1,434568,300903
2025-02-25 09:53:32.066,121923,45073,31116,3,434926,301369
2025-02-25 09:53:32.244,122425,45571,31497,4,435512,302107
2025-02-25 09:53:32.247,122727,45947,31782,4,435890,302602
2025-02-25 09:53:32.392,123070,46305,32040,5,436312,303113
2025-02-25 09:53:32.639,123235,46588,32207,4,436469,303463
2025-02-25 09:53:32.642,121355,45361,31027,3,435332,301844
2025-02-25 09:53:32.647,120919,44937,30572,3,435170,301263
2025-02-25 09:53:32.797,121350,45206,30719,5,435658,301746
2025-02-25 09:53:32.971,121325,45323,30716,3,435668,301751
2025-02-25 09:53:32.974,121862,45730,30971,4,435750,302062
2025-02-25 09:53:33.127,122533,46323,31365,4,435982,302681
2025-02-25 09:53:33.148,123542,46982,31731,5,435949,303418
2025-02-25 09:53:33.304,124220,47679,32138,4,436092,304151
2025-02-25 09:53:33.340,124619,48224,32564,4,436938,305020
2025-02-25 09:53:33.446,125120,48707,32930,5,437391,305628
2025-02-25 09:53:33.621,123929,48151,32256,2,436428,304695
2025-02-25 09:53:33.643,122905,47234,31275,6,434914,303010
2025-02-25 09:53:33.829,123626,47600,31433,7,434727,303263
2025-02-25 09:53:33.843,123920,47948,31550,2,434425,303385
2025-02-25 09:53:34.007,124287,48331,31720,4,434280,303537
2025-02-25 09:53:34.035,124941,48954,32139,4,434568,304137
2025-02-25 09:53:34.148,125561,49614,32547,3,434829,304789
2025-02-25 09:53:34.323,126012,50142,32839,6,434868,305193
2025-02-25 09:53:34.335,126539,50697,33183,5,435008,305695
2025-02-25 09:53:34.485,125828,50478,32846,4,434311,305166
2025-02-25 09:53:34.659,124631,49471,31960,4,433028,303563
2025-02-25 09:53:34.662,125239,49703,32177,3,433286,303941
2025-02-25 09:53:34.831,125377,49882,32334,5,433342,304110
2025-02-25 09:53:34.839,125515,50012,32440,6,433277,304089
2025-02-25 09:53:37.500,126283,50847,33143,6,434023,305028
2025-02-25 09:53:37.868,126410,51132,33400,7,434314,305324
2025-02-25 09:53:38.083,125097,50368,32831,5,433733,304397
2025-02-25 09:53:38.087,123945,49193,32079,3,433060,303061
2025-02-25 09:53:38.094,124397,49206,32307,5,433508,303369
2025-02-25 09:53:38.101,124206,49091,32363,5,433590,303342
2025-02-25 09:53:38.106,124174,49027,32456,6,433931,303446
2025-02-25 09:53:38.113,124569,49327,32813,4,434612,304072
2025-02-25 09:53:38.119,124814,49568,33122,2,435144,304538
2025-02-25 09:53:38.123,124809,49670,33259,1,435387,304818
2025-02-25 09:53:38.130,122874,48213,32138,1,434175,303087
2025-02-25 09:53:38.136,122361,47273,31540,3,433449,301957
2025-02-25 09:53:38.140,122788,47320,31683,2,433524,302123
2025-02-25 09:53:38.147,122755,47223,31699,3,433439,302039
2025-02-25 09:53:38.154,123097,47393,31904,6,433635,302291
2025-02-25 09:53:38.160,123660,47780,32265,5,433922,302807
2025-02-25 09:53:38.166,124080,48146,32575,3,434151,303254
2025-02-25 09:53:38.169,124449,48490,32859,4,434386,303692
2025-02-25 09:53:38.173,123969,48332,32731,3,434082,303489
2025-02-25 09:53:38.181,121925,46731,31484,7,432343,301173
2025-02-25 09:53:38.186,122053,46474,31324,4,432043,300781
2025-02-25 09:53:38.190,122352,46663,31487,4,432210,301081
2025-02-25 09:53:38.200,122689,46793,31501,3,431557,300859
2025-02-25 09:53:38.207,123676,47444,31842,2,431448,301498
2025-02-25 09:53:38.219,124161,48001,32257,1,432018,302252
2025-02-25 09:53:38.224,124682,48429,32499,6,431746,302451
2025-02-25 09:53:38.230,125422,48955,32635,4,431132,302889
2025-02-25 09:53:38.236,123218,47492,31664,4,430186,301057
2025-02-25 09:53:38.241,122989,46893,31377,3,430163,300448
2025-02-25 09:53:38.246,123259,47044,31615,4,430929,300969
2025-02-25 09:53:38.252,123091,46923,31593,3,430939,300801
2025-02-25 09:53:38.257,123906,47282,31791,5,430758,301068
2025-02-25 09:53:38.754,124660,47875,32227,6,431544,302105
2025-02-25 09:53:38.756,124677,48075,32537,3,432513,302646
2025-02-25 09:53:38.759,123484,47337,32086,4,432205,301808
2025-02-25 09:53:38.762,121904,46049,31154,5,431320,300078
2025-02-25 09:53:38.765,122027,45981,31286,4,432398,300478
2025-02-25 09:53:38.767,121950,45958,31348,6,432727,300560
2025-02-25 09:53:38.795,122123,46142,31387,2,432317,300490
2025-02-25 09:53:38.955,122942,46618,31752,3,433030,301360
2025-02-25 09:53:38.994,123192,46619,31987,6,434316,301947
2025-02-25 09:53:39.205,122919,46777,31830,4,432649,301398
2025-02-25 09:53:39.210,122263,45928,30880,4,431145,300199
2025-02-25 09:53:39.296,122622,45894,30895,5,432236,300849
2025-02-25 09:53:39.680,122767,46065,31073,4,432811,301370
2025-02-25 09:53:39.682,123110,46432,31108,4,432050,301434
2025-02-25 09:53:39.685,123845,46941,31451,4,432709,302297
2025-02-25 09:53:39.687,124406,47375,31796,4,433325,303061
2025-02-25 09:53:39.831,124178,47410,31615,5,432407,302820
2025-02-25 09:53:40.106,122885,46347,30633,5,431168,301345
2025-02-25 09:53:40.115,123017,46230,30602,5,432013,301633
2025-02-25 09:53:40.122,123284,46475,30694,5,431928,301894
2025-02-25 09:53:40.352,123436,46736,30721,5,431784,302117
2025-02-25 09:53:40.356,123877,47123,30997,4,432352,302755
2025-02-25 09:53:40.388,124243,47385,31273,5,433061,303348
2025-02-25 09:53:40.679,123360,46714,30712,4,432840,302888
2025-02-25 09:53:40.685,122208,45803,29834,4,432125,301819
2025-02-25 09:53:40.690,122789,46119,29944,3,432108,302151
2025-02-25 09:53:40.952,122903,46258,30064,4,433068,302898
2025-02-25 09:53:40.954,122828,46254,30075,3,433523,303147
2025-02-25 09:53:40.985,123785,47448,30452,3,431386,303408
2025-02-25 09:53:41.269,124878,48213,30878,6,432263,304786
2025-02-25 09:53:41.284,121164,46841,29832,4,430909,302126
2025-02-25 09:53:41.299,121375,46396,28426,4,427371,300749
2025-02-25 09:53:41.775,125330,47628,28738,5,428804,304182
2025-02-25 09:53:41.779,127724,48723,29128,4,430359,307331
2025-02-25 09:53:41.785,130182,50058,29612,3,431149,309978
2025-02-25 09:53:41.789,130845,51613,30337,5,431698,311569
2025-02-25 09:53:41.793,131141,52649,30858,5,432156,312489
2025-02-25 09:53:42.023,130625,52651,30886,4,431961,312337
2025-02-25 09:53:42.026,129331,51259,30092,2,429865,310227
2025-02-25 09:53:42.224,129462,51348,30067,5,429131,309889
2025-02-25 09:53:42.228,129659,51780,30275,4,429298,310226
2025-02-25 09:53:42.476,129833,52061,30443,5,429294,310337
2025-02-25 09:53:42.480,130321,52754,30828,3,429923,311136
2025-02-25 09:53:42.484,130635,53326,31176,3,430177,311596
2025-02-25 09:53:42.782,130988,53912,31417,5,429692,311688
2025-02-25 09:53:42.785,130130,53580,31142,6,428705,310971
2025-02-25 09:53:42.789,129230,52413,30666,3,428768,310315
2025-02-25 09:53:43.032,129309,52246,30793,5,429050,310357
2025-02-25 09:53:43.035,129373,52324,30924,2,428994,310391
2025-02-25 09:53:43.076,129616,52515,31120,6,429313,310687
2025-02-25 09:53:43.273,129976,53017,31471,2,429734,311268
2025-02-25 09:53:43.279,130261,53534,31781,3,429878,311703
2025-02-25 09:53:43.509,130618,54056,32047,5,429953,312187
2025-02-25 09:53:43.513,130810,54441,32204,5,429983,312613
2025-02-25 09:53:43.711,129852,53057,31404,7,428772,311269
2025-02-25 09:53:43.715,130024,52578,31143,4,428401,310944
2025-02-25 09:53:43.961,130287,52889,31301,6,428594,311364
2025-02-25 09:53:43.967,130418,52988,31366,4,428626,311510
2025-02-25 09:53:43.972,130877,53479,31640,4,428843,312010
2025-02-25 09:53:44.228,131314,54136,31996,2,429318,312769
2025-02-25 09:53:44.236,131678,54625,32295,3,429642,313293
2025-02-25 09:53:44.264,131985,55118,32538,3,429669,313699
2025-02-25 09:53:44.772,131187,54201,31949,4,428573,312718
2025-02-25 09:53:44.776,131226,53355,31492,5,427973,312067
2025-02-25 09:53:44.778,131593,53640,31656,4,428184,312464
2025-02-25 09:53:44.782,131651,53815,31738,5,428170,312640
2025-02-25 09:53:44.784,132004,54215,31951,5,428226,312931
2025-02-25 09:53:45.031,132465,54913,32280,5,428386,313473
2025-02-25 09:53:45.034,132776,55597,32605,3,428580,314008
2025-02-25 09:53:45.066,133065,56143,32851,4,428635,314368
2025-02-25 09:53:45.252,132385,55359,32296,5,427559,313418
2025-02-25 09:53:45.259,132523,54649,31900,4,427038,312856
2025-02-25 09:53:45.432,132926,55057,32115,7,427149,313254
2025-02-25 09:53:45.459,132940,55293,32195,8,426992,313327
2025-02-25 09:53:45.764,133272,55716,32397,5,426970,313577
2025-02-25 09:53:45.768,133683,56410,32721,5,427316,314198
2025-02-25 09:53:45.771,133973,57076,33048,5,427575,314716
2025-02-25 09:53:45.942,133571,57076,32992,5,427383,314630
2025-02-25 09:53:45.963,133019,55887,32340,3,426758,313748
2025-02-25 09:53:46.175,133315,55852,32471,3,427090,314018
2025-02-25 09:53:46.178,133267,55986,32625,3,427255,314191
2025-02-25 09:53:46.437,133341,56023,32703,4,427254,314268
2025-02-25 09:53:46.439,133644,56431,32977,2,427486,314669
2025-02-25 09:53:46.454,133917,56965,33278,3,427719,315108
2025-02-25 09:53:46.643,133498,56810,33088,4,427297,314871
2025-02-25 09:53:46.646,132812,55280,32115,3,426297,313641
2025-02-25 09:53:46.835,133062,54966,31996,4,426188,313533
2025-02-25 09:53:46.847,133143,55164,32134,4,426324,313773
2025-02-25 09:53:47.038,133162,55189,32176,6,426288,313772
2025-02-25 09:53:47.041,133440,55588,32438,2,426456,314097
2025-02-25 09:53:47.294,133716,56161,32754,5,426597,314474
2025-02-25 09:53:47.297,133646,56441,32827,2,426499,314617
2025-02-25 09:53:47.342,132650,54852,31763,4,425346,313191
2025-02-25 09:53:47.494,132639,54187,31400,4,425019,312684
2025-02-25 09:53:47.542,132687,54317,31501,3,425068,312752
2025-02-25 09:53:47.662,132621,54356,31543,3,425045,312710
2025-02-25 09:53:47.943,132784,54744,31789,5,425194,312943
2025-02-25 09:53:47.948,132889,55325,32173,4,425713,313482
2025-02-25 09:53:47.953,132869,55668,32461,4,425884,313581
2025-02-25 09:53:48.257,132146,54682,31687,3,425066,312596
2025-02-25 09:53:48.260,131604,53541,30837,2,424236,311544
2025-02-25 09:53:48.262,131557,53784,30794,6,423430,311375
2025-02-25 09:53:48.480,131509,54148,30822,4,422996,311416
2025-02-25 09:53:48.483,131544,54667,31024,4,422770,311544
2025-02-25 09:53:48.669,131985,55316,31402,3,423274,312084
2025-02-25 09:53:48.672,132346,55798,31675,4,423359,312222
2025-02-25 09:53:48.901,132136,55886,31533,3,423049,312054
2025-02-25 09:53:48.905,131509,54693,30530,4,422371,311005
2025-02-25 09:53:48.929,131578,54518,30359,4,422188,310795
2025-02-25 09:53:49.076,131602,54831,30492,5,422505,311140
2025-02-25 09:53:49.307,131319,54965,30528,5,422024,310773
2025-02-25 09:53:49.311,131571,55592,30817,6,422292,311304
2025-02-25 09:53:49.334,131437,56372,31273,5,423394,312413
2025-02-25 09:53:49.546,130933,56698,31609,5,424459,313089
2025-02-25 09:53:49.550,130461,55526,30678,4,423063,311630
2025-02-25 09:53:49.764,130559,54729,29942,5,422768,311184
2025-02-25 09:53:49.766,131009,54899,30014,5,422858,311457
2025-02-25 09:53:50.011,131307,55121,30114,4,423420,312024
2025-02-25 09:53:50.013,131763,55184,30360,5,425171,313128
2025-02-25 09:53:50.025,132554,55106,30688,4,426917,314224
2025-02-25 09:53:50.216,132855,55531,30988,5,426566,314322
2025-02-25 09:53:50.225,132641,55487,30743,5,425108,313663
2025-02-25 09:53:50.385,132212,54797,29989,6,423979,312828
2025-02-25 09:53:50.429,132093,55234,30110,4,423798,313161
2025-02-25 09:53:50.617,131971,55729,30305,5,423345,313212
2025-02-25 09:53:50.628,132088,56216,30533,2,423382,313515
2025-02-25 09:53:50.828,132254,56999,30998,4,424108,314399
2025-02-25 09:53:50.834,133149,57437,31344,4,425332,315396
2025-02-25 09:53:51.129,133400,57564,31344,5,424294,314858
2025-02-25 09:53:51.132,132713,56728,30604,3,422556,313483
2025-02-25 09:53:51.134,133331,56933,30622,3,422124,313467
2025-02-25 09:53:51.363,133416,57592,30995,4,422795,314192
2025-02-25 09:53:51.366,133526,57810,31164,2,422913,314280
2025-02-25 09:53:51.553,133734,58372,31462,6,422768,314403
2025-02-25 09:53:51.556,133841,59092,31774,3,422662,314696
2025-02-25 09:53:51.739,133930,59740,32071,5,423358,315441
2025-02-25 09:53:51.742,133018,59011,31559,1,422630,314621
2025-02-25 09:53:51.951,133186,58566,31339,6,422767,314556
2025-02-25 09:53:51.954,133415,58894,31604,3,423292,315141
2025-02-25 09:53:51.996,133210,59067,31729,4,423326,315313
2025-02-25 09:53:52.123,133637,59325,31938,6,424023,315937
2025-02-25 09:53:52.325,133947,59733,32250,3,424380,316363
2025-02-25 09:53:52.328,133839,60129,32486,3,424161,316493
2025-02-25 09:53:52.490,133040,59274,31894,4,423276,315660
2025-02-25 09:53:52.500,133235,58635,31643,5,423286,315470
2025-02-25 09:53:52.760,133483,58869,31858,3,423343,315687
2025-02-25 09:53:52.763,133519,58976,31916,3,423083,315634
2025-02-25 09:53:52.792,133930,59307,32103,5,423337,315981
2025-02-25 09:53:52.932,134247,59797,32378,3,423422,316289
2025-02-25 09:53:53.150,133996,60084,32444,3,423498,316555
2025-02-25 09:53:53.153,133233,58730,31664,3,423201,315828
2025-02-25 09:53:53.193,133441,58279,31595,3,423389,315791
2025-02-25 09:53:53.410,133293,58437,31734,4,422842,315601
2025-02-25 09:53:53.412,133398,58510,31800,5,422800,315633
2025-02-25 09:53:53.608,133469,58858,32085,4,423271,316085
2025-02-25 09:53:53.611,133501,59294,32392,5,423390,316382
2025-02-25 09:53:53.792,132976,58646,31965,4,422931,315818
2025-02-25 09:53:53.796,132753,57115,31149,5,422709,315029
2025-02-25 09:53:54.004,133057,56982,31180,5,422791,315061
2025-02-25 09:53:54.007,133087,57116,31281,2,422823,315166
2025-02-25 09:53:54.170,133297,57210,31425,3,423318,315510
2025-02-25 09:53:54.187,133638,57547,31741,5,423816,315904
2025-02-25 09:53:54.418,133559,57931,31952,3,423646,315962
2025-02-25 09:53:54.420,132502,56480,30991,3,422527,314647
2025-02-25 09:53:54.582,132270,55567,30508,2,421975,313911
2025-02-25 09:53:54.585,132396,55744,30644,5,421931,314005
2025-02-25 09:53:54.781,132271,55906,30753,4,421842,314044
2025-02-25 09:53:54.784,132800,56239,31013,4,422469,314555
2025-02-25 09:53:54.944,133332,56806,31398,4,423317,315347
2025-02-25 09:53:54.984,133121,56534,31196,5,423030,315033
2025-02-25 09:53:55.210,132502,55094,30263,6,421992,313736
2025-02-25 09:53:55.212,132680,54965,30259,4,422133,313783
2025-02-25 09:53:55.372,132703,55130,30428,4,422480,314038
2025-02-25 09:53:55.387,132855,55289,30556,3,422470,314066
2025-02-25 09:53:55.557,133252,55849,30883,5,422733,314518
2025-02-25 09:53:55.579,133575,56443,31213,4,423119,315072
2025-02-25 09:53:55.713,132794,55542,30595,4,422474,314298
2025-02-25 09:53:55.914,132647,54473,29999,4,421947,313507
2025-02-25 09:53:55.916,132837,54656,30151,3,421954,313603
2025-02-25 09:53:56.074,132933,54851,30277,3,421996,313736
2025-02-25 09:53:56.079,133216,55239,30537,5,422222,314057
2025-02-25 09:53:56.340,133573,55872,30903,2,422439,314508
2025-02-25 09:53:56.342,133923,56511,31237,4,422510,314865
2025-02-25 09:53:56.371,133460,56059,30845,2,421938,314392
2025-02-25 09:53:56.501,133283,54953,30168,5,421302,313554
2025-02-25 09:53:56.693,133604,55129,30302,4,421390,313767
2025-02-25 09:53:56.696,133741,55404,30451,4,421379,313911
2025-02-25 09:53:56.913,134031,55817,30678,3,421456,314164
2025-02-25 09:53:56.915,134416,56494,31028,5,421546,314552
2025-02-25 09:53:57.115,134852,57193,31378,6,421739,315002
2025-02-25 09:53:57.117,134655,57262,31290,4,421269,314782
2025-02-25 09:53:57.272,134410,56323,30675,6,420544,313958
2025-02-25 09:53:57.277,134809,56515,30837,5,420956,314347
2025-02-25 09:53:57.468,134804,56782,31013,5,421198,314633
2025-02-25 09:53:57.471,134858,57072,31205,5,421325,314851
2025-02-25 09:53:57.622,134989,57565,31540,4,421728,315324
2025-02-25 09:53:57.672,135149,58059,31862,6,422038,315761
2025-02-25 09:53:57.876,134777,57865,31699,6,421775,315553
2025-02-25 09:53:57.878,134285,56489,30821,5,420849,314463
2025-02-25 09:53:58.032,134500,56448,30867,5,421583,315024
2025-02-25 09:53:58.070,134373,56297,30910,3,421973,315207
2025-02-25 09:53:58.220,134328,56413,30856,5,420652,314538
2025-02-25 09:53:58.382,134505,57085,31153,3,420740,314982
2025-02-25 09:53:58.386,134710,57542,31386,5,420871,315254
2025-02-25 09:53:58.641,134777,57877,31376,2,420315,315159
2025-02-25 09:53:58.643,134071,56559,30409,5,419629,314215
2025-02-25 09:53:58.665,134200,55952,30013,4,419049,313704
2025-02-25 09:53:58.805,134501,56287,30272,3,419553,314126
2025-02-25 09:53:59.001,134428,56636,30540,3,420301,314752
2025-02-25 09:53:59.004,134732,56961,30859,7,421292,315509
2025-02-25 09:53:59.167,135020,57358,31125,4,421383,315739
2025-02-25 09:53:59.170,135265,57856,31208,7,420458,315509
2025-02-25 09:53:59.357,134796,57502,30797,6,420257,315346
2025-02-25 09:53:59.360,134656,56590,30309,5,420443,315185
2025-02-25 09:53:59.513,134959,56538,30447,4,420791,315398
2025-02-25 09:53:59.563,134925,56827,30696,4,421187,315796
2025-02-25 09:53:59.773,135053,57061,30924,5,421622,316170
2025-02-25 09:53:59.775,135234,57516,31252,3,421788,316514
2025-02-25 09:53:59.925,135472,58011,31560,4,421897,316835
2025-02-25 09:53:59.962,135136,57839,31347,3,421480,316569
2025-02-25 09:54:00.131,134766,56649,30553,4,420738,315680
2025-02-25 09:54:00.153,135066,56662,30600,4,420701,315732
2025-02-25 09:54:00.281,135224,56958,30764,4,420815,315968
2025-02-25 09:54:00.478,135437,57262,30950,4,420857,316149
2025-02-25 09:54:00.481,135779,57877,31302,5,421063,316559
2025-02-25 09:54:00.640,136028,58534,31648,4,421269,316974
2025-02-25 09:54:00.657,135793,58723,31686,3,421224,317034
2025-02-25 09:54:00.870,135105,57240,30743,5,420353,315900
2025-02-25 09:54:00.873,135234,56767,30562,3,420166,315659
2025-02-25 09:54:01.039,135302,56926,30711,4,420235,315806
2025-02-25 09:54:01.049,135400,57041,30811,6,420256,315876
2025-02-25 09:54:01.328,135721,57522,31089,3,420087,315988
2025-02-25 09:54:01.330,136026,58188,31405,4,420066,316243
2025-02-25 09:54:01.353,136059,58649,31562,4,419994,316410
2025-02-25 09:54:01.480,135386,57335,30603,3,418505,314911
2025-02-25 09:54:01.678,135468,56709,30214,3,418075,314437
2025-02-25 09:54:01.682,135573,57005,30411,5,418337,314714
2025-02-25 09:54:01.839,135668,57056,30459,4,419002,315149
2025-02-25 09:54:01.853,135814,57408,30784,4,419232,315387
2025-02-25 09:54:02.122,136099,57960,31057,4,418860,315395
2025-02-25 09:54:02.125,136446,58543,31301,4,418720,315546
2025-02-25 09:54:02.144,135765,58139,30950,2,418702,315390
2025-02-25 09:54:02.312,135589,57459,30677,6,419073,315389
2025-02-25 09:54:02.344,135761,57588,30889,3,419324,315610
2025-02-25 09:54:02.501,135792,57741,31005,4,419058,315483
2025-02-25 09:54:02.548,136077,58233,31222,4,418798,315580
2025-02-25 09:54:02.668,136500,59047,31654,5,419899,316681
2025-02-25 09:54:02.889,136675,59619,32086,5,421121,317710
2025-02-25 09:54:02.892,135948,59130,31706,3,419545,316463
2025-02-25 09:54:03.115,135849,58301,31117,4,418691,315693
2025-02-25 09:54:03.119,136322,58637,31346,4,419602,316522
2025-02-25 09:54:03.140,136393,58832,31506,4,419959,316835
2025-02-25 09:54:03.307,136596,59148,31700,3,419716,316833
2025-02-25 09:54:03.344,136950,59819,32021,3,419872,317251
2025-02-25 09:54:03.464,137253,60496,32363,5,420277,317809
2025-02-25 09:54:03.751,136681,60136,32005,4,419667,317282
2025-02-25 09:54:03.754,136546,59128,31382,3,419323,316731
2025-02-25 09:54:03.756,136809,59272,31547,4,419558,317010
2025-02-25 09:54:03.900,136609,59552,31693,4,419410,317030
2025-02-25 09:54:03.935,136727,59887,31877,5,419714,317369
2025-02-25 09:54:04.138,137083,60397,32195,4,420570,318177
2025-02-25 09:54:04.141,137235,60803,32442,3,420263,318125
2025-02-25 09:54:04.295,136603,60270,31911,3,419516,317481
2025-02-25 09:54:04.340,136315,59090,31166,3,419028,316808
2025-02-25 09:54:04.537,136571,59106,31251,4,419011,316891
2025-02-25 09:54:04.541,136500,59286,31379,5,419127,317074
2025-02-25 09:54:04.766,136665,59488,31551,4,419389,317331
2025-02-25 09:54:04.770,136777,60048,31933,4,419798,317836
2025-02-25 09:54:05.051,136636,60630,32356,5,420573,318660
2025-02-25 09:54:05.054,136064,59966,31970,4,420192,318200
2025-02-25 09:54:05.057,135606,58092,30904,4,419068,316811
2025-02-25 09:54:05.218,135459,57770,30898,3,419046,316773
2025-02-25 09:54:05.231,135204,57856,31040,5,419357,317083
2025-02-25 09:54:05.479,135306,57805,31129,4,419812,317324
2025-02-25 09:54:05.481,135660,58072,31400,5,419805,317352
2025-02-25 09:54:05.687,135898,58596,31712,3,419837,317542
2025-02-25 09:54:05.690,135624,58791,31720,6,419393,317402
2025-02-25 09:54:05.735,134772,57193,30592,5,418479,316251
2025-02-25 09:54:05.894,134801,56713,30403,6,418479,316059
2025-02-25 09:54:05.927,134861,56947,30599,5,418350,316014
2025-02-25 09:54:06.050,134837,57199,30729,5,418036,315862
2025-02-25 09:54:06.245,135118,57851,31055,4,418100,316144
2025-02-25 09:54:06.247,135545,58644,31466,6,418872,316945
2025-02-25 09:54:06.410,135802,59232,31815,5,419250,317381
2025-02-25 09:54:06.431,135541,58730,31484,7,419193,317077
2025-02-25 09:54:06.674,134865,57230,30530,5,417957,315557
2025-02-25 09:54:06.677,134983,57388,30603,2,417659,315382
2025-02-25 09:54:06.722,134986,57819,30795,3,417960,315698
2025-02-25 09:54:06.841,135096,58051,30952,6,418385,315932
2025-02-25 09:54:07.051,135313,58628,31295,4,418630,316219
2025-02-25 09:54:07.054,135585,59341,31670,5,418872,316643
2025-02-25 09:54:07.293,135662,59668,31838,4,419475,317136
2025-02-25 09:54:07.296,134522,57925,30796,4,418736,315734
2025-02-25 09:54:07.326,134395,57341,30490,4,418230,315047
2025-02-25 09:54:07.484,134512,57717,30730,5,418592,315414
2025-02-25 09:54:07.526,134510,57788,30859,4,419278,315748
2025-02-25 09:54:07.631,134779,58122,31133,3,419566,315956
2025-02-25 09:54:07.835,134922,58816,31512,4,419472,316132
2025-02-25 09:54:07.837,135234,59569,31862,5,419628,316558
2025-02-25 09:54:07.990,134456,59007,31482,3,419530,316190
2025-02-25 09:54:08.019,133699,57302,30484,4,418740,314764
2025-02-25 09:54:08.208,133768,57276,30511,4,418562,314581
2025-02-25 09:54:08.219,133730,57564,30723,6,418824,314800
2025-02-25 09:54:08.437,133852,57745,30917,4,419476,315163
2025-02-25 09:54:08.440,134141,58205,31270,4,419984,315543
2025-02-25 09:54:08.628,134393,58890,31656,4,420010,315790
2025-02-25 09:54:08.631,134522,59499,31939,3,420148,316131
2025-02-25 09:54:08.785,133333,58026,31094,4,419810,315115
2025-02-25 09:54:08.814,133047,56862,30582,5,419629,314248
2025-02-25 09:54:08.977,133119,57110,30788,4,419359,314095
2025-02-25 09:54:09.013,133202,57337,30913,6,419372,314124
2025-02-25 09:54:09.137,133516,57774,31170,4,419761,314441
2025-02-25 09:54:09.338,133733,58539,31525,5,419638,314634
2025-02-25 09:54:09.341,133950,59482,31995,5,420717,315742
2025-02-25 09:54:09.497,133008,59111,31925,3,421192,315797
2025-02-25 09:54:09.506,132270,56982,30705,4,419088,313209
2025-02-25 09:54:09.706,132404,57097,30752,6,418842,312956
2025-02-25 09:54:09.710,132175,57605,30917,5,418544,312883
2025-02-25 09:54:09.859,132194,58018,30914,7,418103,312725
2025-02-25 09:54:10.064,132829,58834,31166,3,418317,313214
2025-02-25 09:54:10.067,133801,59767,31557,3,419065,314095
2025-02-25 09:54:10.110,134173,60556,31946,3,419899,314903
2025-02-25 09:54:10.276,133143,59307,31238,4,419162,313625
2025-02-25 09:54:10.313,133142,58609,30867,3,418845,312885
2025-02-25 09:54:10.499,133463,59172,31198,2,419490,313495
2025-02-25 09:54:10.502,133417,59377,31301,4,419489,313466
2025-02-25 09:54:10.741,133841,59836,31472,3,419651,313716
2025-02-25 09:54:10.744,134403,60632,31775,4,419932,314262
2025-02-25 09:54:10.950,134998,61557,32253,4,421922,315961
2025-02-25 09:54:10.953,133994,60618,31932,5,422892,315976
2025-02-25 09:54:11.114,133344,58634,31051,4,421765,314171
2025-02-25 09:54:11.117,133862,58652,31209,4,421802,314161
2025-02-25 09:54:11.376,133649,58789,31338,4,421767,314141
2025-02-25 09:54:11.379,133647,58897,31402,4,421648,314004
2025-02-25 09:54:11.397,133787,59563,31687,4,421289,314090
2025-02-25 09:54:11.543,133953,60427,32037,4,420975,314382
2025-02-25 09:54:11.749,133078,59880,31701,2,420781,313938
2025-02-25 09:54:11.752,132018,58166,30898,3,420083,312369
2025-02-25 09:54:11.966,132386,58254,31067,5,420245,312432
2025-02-25 09:54:11.969,132455,58526,31262,4,420425,312616
2025-02-25 09:54:12.000,132306,58819,31406,3,420201,312579
2025-02-25 09:54:12.164,132312,59484,31741,3,420359,313008
2025-02-25 09:54:12.192,132480,60185,32135,4,420972,313814
2025-02-25 09:54:12.398,131619,59527,31823,5,420738,313299
2025-02-25 09:54:12.400,130352,57701,30956,4,419301,311251
2025-02-25 09:54:12.602,130914,57982,31120,3,419361,311351
2025-02-25 09:54:12.605,130747,58547,31433,5,420069,311670
2025-02-25 09:54:12.764,130174,58357,31498,5,421257,311800
2025-02-25 09:54:12.797,130565,58323,31691,6,421773,311871
2025-02-25 09:54:12.961,131138,58732,31986,3,422214,312323
2025-02-25 09:54:12.996,129944,57820,31493,3,420998,311153
2025-02-25 09:54:13.140,128929,56129,30591,6,419507,309300
2025-02-25 09:54:13.189,129556,56387,30786,2,420072,309717
2025-02-25 09:54:13.336,129674,56587,30952,4,420289,309947
2025-02-25 09:54:13.608,129954,56844,31022,3,419688,309709
2025-02-25 09:54:13.611,130707,57652,31141,3,419067,310020
2025-02-25 09:54:13.614,131183,58427,31325,4,419392,310681
2025-02-25 09:54:13.842,129708,57179,30661,3,418494,309222
2025-02-25 09:54:13.845,128984,55938,30128,5,418006,307896
2025-02-25 09:54:13.891,129232,56347,30513,5,418892,308455
2025-02-25 09:54:14.207,129242,56509,30724,4,419449,308751
2025-02-25 09:54:14.213,129589,56813,30958,7,420010,309149
2025-02-25 09:54:14.220,130300,57443,31344,4,421046,310051
2025-02-25 09:54:14.517,130652,57952,31642,4,421655,310664
2025-02-25 09:54:14.521,129133,56216,30735,1,420107,308710
2025-02-25 09:54:14.525,129120,55402,30373,3,420107,308155
2025-02-25 09:54:14.701,129373,55777,30686,3,420800,308734
2025-02-25 09:54:14.705,129038,55875,30741,6,420264,308520
2025-02-25 09:54:14.917,129457,56420,30972,4,420272,308957
2025-02-25 09:54:14.920,130122,57222,31371,3,421274,310022
2025-02-25 09:54:15.103,129781,56984,31276,3,421547,309974
2025-02-25 09:54:15.106,128397,55010,30260,3,420210,307964
2025-02-25 09:54:15.381,128749,55159,30338,4,419954,308026
2025-02-25 09:54:15.384,128992,55603,30634,3,420631,308657
2025-02-25 09:54:15.387,129009,55629,30732,4,420930,308730
2025-02-25 09:54:15.542,129361,56123,31005,4,420969,309019
2025-02-25 09:54:15.583,129745,56686,31130,4,420414,309204
2025-02-25 09:54:15.808,128446,55229,30200,4,418599,307338
2025-02-25 09:54:15.811,128001,54663,29929,5,418335,306700
2025-02-25 09:54:15.971,128351,55238,30201,4,418496,307135
2025-02-25 09:54:15.983,128439,55498,30370,4,418933,307503
2025-02-25 09:54:16.164,128616,55940,30704,4,419628,308011
2025-02-25 09:54:16.175,129024,56529,31135,3,420441,308722
2025-02-25 09:54:16.329,128029,55683,30790,4,420043,307897
2025-02-25 09:54:16.375,126793,53853,29848,3,418504,305866
2025-02-25 09:54:16.527,127373,54113,29979,5,418235,305989
2025-02-25 09:54:16.684,127678,54530,30173,3,418472,306405
2025-02-25 09:54:16.686,128006,54849,30307,6,418515,306579
2025-02-25 09:54:16.884,128590,55683,30674,4,418885,307328
2025-02-25 09:54:16.887,128422,55972,30788,5,418894,307571
2025-02-25 09:54:17.098,127381,54244,29861,4,417528,305634
2025-02-25 09:54:17.100,127512,54198,29868,3,417667,305606
2025-02-25 09:54:17.290,127779,54694,30131,5,417973,306077
2025-02-25 09:54:17.293,128031,54955,30262,4,418280,306368
2025-02-25 09:54:17.448,128613,55700,30642,6,418819,307101
2025-02-25 09:54:17.463,129134,56507,31025,4,419305,307873
2025-02-25 09:54:17.640,128311,55904,30690,6,418596,307091
2025-02-25 09:54:17.663,127351,54407,29904,5,417244,305303
2025-02-25 09:54:17.802,127877,54812,30122,4,417612,305734
2025-02-25 09:54:18.004,128099,55160,30304,6,417723,305979
2025-02-25 09:54:18.007,128394,55557,30475,6,417792,306223
2025-02-25 09:54:18.047,129322,56279,30815,4,418381,306976
2025-02-25 09:54:18.163,130006,57119,31167,4,418844,307731
2025-02-25 09:54:18.359,129206,56852,31020,3,418464,307305
2025-02-25 09:54:18.362,127952,55249,30216,4,416966,305323
2025-02-25 09:54:18.509,128477,55545,30427,5,417484,305795
2025-02-25 09:54:18.551,128590,55752,30592,6,417875,306111
2025-02-25 09:54:18.765,128569,56037,30819,4,418344,306486
2025-02-25 09:54:18.768,128802,56598,31218,4,419019,307120
2025-02-25 09:54:18.922,129052,57160,31574,4,419545,307733
2025-02-25 09:54:18.942,127764,55985,31046,3,418897,306626
2025-02-25 09:54:19.111,126698,54157,30207,4,417767,304790
2025-02-25 09:54:19.142,127091,54210,30354,3,418019,305039
2025-02-25 09:54:19.344,127189,54346,30493,2,418263,305250
2025-02-25 09:54:19.347,127393,54605,30681,4,418535,305530
2025-02-25 09:54:19.530,127880,55231,31070,7,419145,306258
2025-02-25 09:54:19.534,128341,55871,31454,6,419684,306970
2025-02-25 09:54:19.689,128372,56143,31609,6,419809,307230
2025-02-25 09:54:19.738,126547,53960,30457,5,418168,304899
2025-02-25 09:54:19.893,126322,53081,30059,3,417514,303961
2025-02-25 09:54:19.938,126730,53371,30259,2,417818,304365
2025-02-25 09:54:20.056,126919,53560,30394,4,417999,304589
2025-02-25 09:54:20.253,127514,54161,30734,4,418476,305257
2025-02-25 09:54:20.257,128096,54964,31185,5,419082,306137
2025-02-25 09:54:20.473,128579,55659,31562,3,419634,306875
2025-02-25 09:54:20.475,128968,56321,31926,3,420086,307544
2025-02-25 09:54:20.647,129456,57027,32303,4,420552,308253
2025-02-25 09:54:20.650,129959,57733,32641,4,420775,308874
2025-02-25 09:54:20.801,128572,56133,31748,1,419640,307334
2025-02-25 09:54:20.822,127519,54404,30861,1,418650,305690
2025-02-25 09:54:21.053,127937,54610,30968,3,418452,305870
2025-02-25 09:54:21.056,128317,54824,31068,6,419284,306606
2025-02-25 09:54:21.199,128311,54972,31268,5,420098,307000
2025-02-25 09:54:21.225,128949,55658,31585,5,419744,307231
2025-02-25 09:54:21.401,129869,56613,31963,4,420582,308438
2025-02-25 09:54:21.426,129822,57253,32392,4,422308,309722
2025-02-25 09:54:21.570,129772,57673,32655,5,421976,309659
2025-02-25 09:54:21.756,130339,58120,32747,4,421761,309986
2025-02-25 09:54:21.759,127701,55876,31604,4,422444,308793
2025-02-25 09:54:21.913,126302,54202,30867,4,421190,306537
2025-02-25 09:54:21.921,126965,54083,30758,1,420117,305842
2025-02-25 09:54:22.161,127184,54134,30710,3,420412,306270
2025-02-25 09:54:22.163,127759,54529,30900,3,420570,306744
2025-02-25 09:54:22.307,128630,55456,31305,5,420768,307689
2025-02-25 09:54:22.321,129371,56293,31670,2,421294,308695
2025-02-25 09:54:22.496,130096,57043,31976,3,421569,309468
2025-02-25 09:54:22.521,130039,57178,31933,5,421518,309708
2025-02-25 09:54:22.715,128587,55717,30954,5,419901,308244
2025-02-25 09:54:22.718,129284,55922,31032,5,419928,308581
2025-02-25 09:54:22.901,129416,56288,31447,5,422133,309988
2025-02-25 09:54:22.913,128386,55912,31520,4,422357,309683
2025-02-25 09:54:23.061,128850,56070,31678,4,421254,309056
2025-02-25 09:54:23.250,130162,56824,32019,3,421810,310011
2025-02-25 09:54:23.252,130056,57470,32431,6,422835,311014
2025-02-25 09:54:23.405,128752,56343,31796,5,421274,309609
2025-02-25 09:54:23.417,128209,54758,30811,5,419790,308068
2025-02-25 09:54:23.589,128779,55082,31046,4,420488,308779
2025-02-25 09:54:23.608,128586,55265,31201,3,420374,308839
2025-02-25 09:54:23.801,129143,55469,31262,4,420235,308961
2025-02-25 09:54:23.808,129589,56210,31661,3,420878,309779
2025-02-25 09:54:23.984,130043,56843,32038,2,421351,310367
2025-02-25 09:54:24.013,129412,56382,31774,3,420848,309912
2025-02-25 09:54:24.140,127815,54084,30561,4,419272,307721
2025-02-25 09:54:24.326,127880,53813,30487,4,418949,307376
2025-02-25 09:54:24.328,128259,54097,30673,4,419178,307742
2025-02-25 09:54:24.553,128266,54122,30701,4,419221,307763
2025-02-25 09:54:24.556,128564,54720,31012,3,419303,308171
2025-02-25 09:54:24.742,129038,55496,31435,3,419724,308899
2025-02-25 09:54:24.745,128964,55730,31580,3,419885,309185
2025-02-25 09:54:24.890,127174,53510,30407,3,418264,306962
2025-02-25 09:54:24.904,126882,52698,30058,4,417687,306108
2025-02-25 09:54:25.088,127076,53004,30291,6,417838,306358
2025-02-25 09:54:25.108,126971,53012,30323,7,417780,306287
2025-02-25 09:54:25.238,127266,53413,30570,5,417973,306573
2025-02-25 09:54:25.427,127761,54135,30950,4,418334,307182
2025-02-25 09:54:25.430,128133,54750,31277,4,418765,307792
2025-02-25 09:54:25.646,127897,54757,31244,3,418575,307747
2025-02-25 09:54:25.649,126313,52734,30017,4,416973,305714
2025-02-25 09:54:25.828,126363,52394,29845,6,416807,305473
2025-02-25 09:54:25.830,126609,52780,30078,4,417067,305902
2025-02-25 09:54:25.981,126733,52934,30145,2,417069,306058
2025-02-25 09:54:26.004,127279,53575,30477,4,417388,306674
2025-02-25 09:54:26.167,127863,54415,30924,3,417923,307549
2025-02-25 09:54:26.204,128273,55106,31288,3,418444,308316
2025-02-25 09:54:26.315,128621,55646,31623,2,418986,308986
2025-02-25 09:54:26.516,127446,54617,30983,5,418035,307919
2025-02-25 09:54:26.519,126558,53232,30150,3,417049,306587
2025-02-25 09:54:26.677,126913,53497,30375,2,417351,306978
2025-02-25 09:54:26.696,126923,53653,30488,5,417386,307139
2025-02-25 09:54:26.874,127139,53921,30663,5,417647,307459
2025-02-25 09:54:26.895,127779,54567,31063,4,418053,308108
2025-02-25 09:54:27.045,128354,55307,31450,3,418383,308800
2025-02-25 09:54:27.332,128828,55979,31753,5,418589,309411
2025-02-25 09:54:27.334,128731,56167,31746,3,418486,309604
2025-02-25 09:54:27.337,127373,54524,30661,2,416995,307947
2025-02-25 09:54:27.493,127594,54400,30615,6,416877,307899
2025-02-25 09:54:27.496,127968,54879,30905,4,417143,308431
2025-02-25 09:54:27.700,128079,55065,30986,6,417056,308547
2025-02-25 09:54:27.703,128526,55687,31358,5,417518,309190
2025-02-25 09:54:27.930,129000,56436,31779,6,417899,309841
2025-02-25 09:54:27.933,129346,57037,32122,6,418229,310398
2025-02-25 09:54:28.115,129626,57566,32420,4,418556,310894
2025-02-25 09:54:28.118,128547,56682,31852,2,417652,309978
2025-02-25 09:54:28.268,127709,55183,31030,6,416483,308511
2025-02-25 09:54:28.287,128208,55471,31274,3,416693,308895
2025-02-25 09:54:28.459,128219,55659,31388,5,416492,308946
2025-02-25 09:54:28.486,128434,55926,31525,5,416522,309125
2025-02-25 09:54:28.620,128836,56548,31898,4,417075,309779
2025-02-25 09:54:28.800,129042,57130,32244,3,417466,310286
2025-02-25 09:54:28.803,129230,57575,32487,4,417415,310496
2025-02-25 09:54:28.954,128784,57209,32240,3,417153,310199
2025-02-25 09:54:28.990,126544,55214,31150,5,416076,308186
2025-02-25 09:54:29.199,126231,54768,31048,4,415969,307711
2025-02-25 09:54:29.203,126693,54907,31141,5,415501,307631
2025-02-25 09:54:29.361,126929,55103,31207,5,415569,307855
2025-02-25 09:54:29.383,127205,55514,31512,4,416230,308387
2025-02-25 09:54:29.623,127288,56092,31802,3,415967,308492
2025-02-25 09:54:29.626,127304,56821,32166,5,416474,309284
2025-02-25 09:54:29.770,126076,56293,31751,6,414968,307924
2025-02-25 09:54:29.783,124876,54810,30557,5,413005,305874
2025-02-25 09:54:29.962,125460,55059,30661,3,413479,306268
2025-02-25 09:54:29.986,125945,55344,30821,4,414018,306837
2025-02-25 09:54:30.117,126220,55590,30936,2,414229,307116
2025-02-25 09:54:30.302,126732,56252,31285,2,414569,307686
2025-02-25 09:54:30.305,127313,57053,31633,6,414767,308264
2025-02-25 09:54:30.462,127563,57731,31936,3,415198,308838
2025-02-25 09:54:30.477,126441,56851,31329,4,414250,307741
2025-02-25 09:54:30.652,125913,55826,30696,3,413348,306487
2025-02-25 09:54:30.678,126545,56385,31032,2,413928,307125
2025-02-25 09:54:30.940,126571,56531,31136,4,414122,307281
2025-02-25 09:54:30.943,126783,56802,31285,4,414235,307376
2025-02-25 09:54:30.982,127328,57471,31653,4,414689,307946
2025-02-25 09:54:31.144,127862,58170,32006,2,415202,308632
2025-02-25 09:54:31.174,127864,58434,32089,4,415300,308832
2025-02-25 09:54:31.376,126365,56796,31104,3,413720,306831
2025-02-25 09:54:31.379,126565,56612,31021,5,413515,306490
2025-02-25 09:54:31.593,126967,57121,31328,5,413913,307049
2025-02-25 09:54:31.597,126994,57191,31362,5,413866,306997
2025-02-25 09:54:31.756,127547,57723,31658,7,414259,307501
2025-02-25 09:54:31.778,128187,58438,32047,5,414787,308209
2025-02-25 09:54:31.944,128514,58973,32311,4,415171,308710
2025-02-25 09:54:31.965,127168,57675,31559,7,413976,307114
2025-02-25 09:54:32.105,126917,57007,31231,3,413375,306184
2025-02-25 09:54:32.315,127516,57540,31570,5,413937,306831
2025-02-25 09:54:32.318,127345,57514,31570,4,413930,306720
2025-02-25 09:54:32.522,127560,57792,31766,3,414343,307016
2025-02-25 09:54:32.525,127911,58325,32138,5,415046,307677
2025-02-25 09:54:32.569,127608,58328,32238,5,415462,307878
2025-02-25 09:54:32.710,125677,56112,31144,4,414006,305511
2025-02-25 09:54:32.857,125612,55393,30939,4,413906,304935
2025-02-25 09:54:32.874,125901,55463,31098,3,414197,305169
2025-02-25 09:54:33.113,125807,55250,31034,4,414192,304973
2025-02-25 09:54:33.115,126125,55585,31253,3,414632,305375
2025-02-25 09:54:33.262,126403,56080,31590,3,415316,306007
2025-02-25 09:54:33.265,125663,55506,31301,5,415145,305518
2025-02-25 09:54:33.446,123759,53143,30003,3,413451,302917
2025-02-25 09:54:33.465,123663,52595,29784,4,413202,302309
2025-02-25 09:54:33.606,123778,52642,29844,3,413492,302448
2025-02-25 09:54:33.806,123797,52646,29802,5,413178,302198
2025-02-25 09:54:33.809,124864,53416,29919,3,412759,302816
2025-02-25 09:54:33.978,125238,54344,30361,4,413774,303961
2025-02-25 09:54:33.980,124930,54522,30487,3,414069,304060
2025-02-25 09:54:34.183,122949,52377,29323,6,412498,301440
2025-02-25 09:54:34.186,122303,51556,29033,6,412422,300391
2025-02-25 09:54:34.395,122303,51590,29196,3,413005,300409
2025-02-25 09:54:34.397,122274,51516,29180,5,413145,300257
2025-02-25 09:54:34.596,122699,51957,29410,4,413621,300769
2025-02-25 09:54:34.598,123076,52603,29807,5,414573,301632
2025-02-25 09:54:34.757,123313,53074,30108,5,415169,302131
2025-02-25 09:54:34.761,123918,53551,30324,4,415373,302591
2025-02-25 09:54:35.018,124349,54241,30652,3,415877,303297
2025-02-25 09:54:35.021,124708,54995,31046,4,416574,304149
2025-02-25 09:54:35.053,124046,54743,30885,3,416609,303952
2025-02-25 09:54:35.231,121697,52466,29617,4,415178,301236
2025-02-25 09:54:35.257,121541,51948,29392,4,414824,300416
2025-02-25 09:54:35.500,121797,52013,29451,4,415171,300585
2025-02-25 09:54:35.506,121762,52115,29542,4,415531,300672
2025-02-25 09:54:35.549,122243,52685,29895,3,416040,301222
2025-02-25 09:54:35.712,123143,53462,30253,4,416281,301987
2025-02-25 09:54:35.741,124171,54294,30595,4,416841,303016
2025-02-25 09:54:36.051,124730,55075,30965,5,417389,303863
2025-02-25 09:54:36.055,124824,55570,31191,3,417576,304292
2025-02-25 09:54:36.058,123096,54068,30191,5,415966,302186
2025-02-25 09:54:36.253,123032,53652,29907,3,415353,301399
2025-02-25 09:54:36.259,123371,54131,30243,5,416223,302160
2025-02-25 09:54:36.518,123083,54125,30339,4,416760,302167
2025-02-25 09:54:36.522,123319,54402,30622,2,417513,302529
2025-02-25 09:54:36.543,123705,54810,30978,3,418140,302966
2025-02-25 09:54:36.745,124008,55219,31256,4,418601,303431
2025-02-25 09:54:36.748,124315,55628,31507,3,418981,303845
2025-02-25 09:54:36.943,123612,55218,31216,5,418635,303401
2025-02-25 09:54:36.946,122003,53473,30111,3,417110,301246
2025-02-25 09:54:37.101,122272,53241,30038,5,416905,301012
2025-02-25 09:54:37.135,122637,53488,30218,3,417261,301506
2025-02-25 09:54:37.298,122870,53716,30354,5,417495,301833
2025-02-25 09:54:37.336,123456,54305,30736,4,418171,302617
2025-02-25 09:54:37.449,123933,54885,31122,3,418707,303345
2025-02-25 09:54:37.691,124279,55332,31425,3,419186,303934
2025-02-25 09:54:37.694,124645,55823,31733,2,419495,304437
2025-02-25 09:54:37.731,123950,55371,31366,4,418903,303930
2025-02-25 09:54:37.838,122600,53676,30201,4,417433,302038
2025-02-25 09:54:38.026,122960,53582,30158,4,417429,302123
2025-02-25 09:54:38.031,123267,53834,30325,4,417813,302639
2025-02-25 09:54:38.247,123519,54067,30455,3,418018,302953
2025-02-25 09:54:38.250,124120,54718,30850,5,418668,303810
2025-02-25 09:54:38.433,124600,55374,31240,8,419112,304516
2025-02-25 09:54:38.436,124915,55941,31543,5,419423,305054
2025-02-25 09:54:38.587,125187,56509,31851,4,419807,305599
2025-02-25 09:54:38.623,125302,56973,32113,2,420155,306075
2025-02-25 09:54:38.775,123447,55470,31005,4,418939,304343
2025-02-25 09:54:38.934,122612,54391,30326,5,418445,303227
2025-02-25 09:54:38.937,122511,54286,30472,4,419286,303502
2025-02-25 09:54:39.121,122364,53998,30427,6,419598,303332
2025-02-25 09:54:39.127,122824,54168,30611,6,419827,303595
2025-02-25 09:54:39.275,123556,54722,30989,5,420225,304325
2025-02-25 09:54:39.523,124042,55359,31313,5,420134,304789
2025-02-25 09:54:39.525,124693,56011,31586,4,420004,305317
2025-02-25 09:54:39.530,125530,56759,31903,4,420393,306241
2025-02-25 09:54:39.684,125963,57343,32089,4,420626,307002
2025-02-25 09:54:39.723,124509,55967,30916,5,419422,305580
2025-02-25 09:54:39.879,124508,55381,30536,3,419048,305101
2025-02-25 09:54:39.924,125197,55742,30800,6,419241,305664
2025-02-25 09:54:40.092,125534,55992,30886,8,419212,305969
2025-02-25 09:54:40.123,126048,56598,31230,6,419714,306746
2025-02-25 09:54:40.273,126455,57308,31708,6,420225,307447
2025-02-25 09:54:40.431,126630,57982,32093,4,420069,307757
2025-02-25 09:54:40.434,126883,58519,32459,4,420440,308264
2025-02-25 09:54:40.616,127095,58927,32764,5,420701,308605
2025-02-25 09:54:40.619,125950,57778,31971,7,419559,307221
2025-02-25 09:54:40.773,126019,57036,31513,5,419172,306730
2025-02-25 09:54:40.818,126752,57530,31863,7,419911,307711
2025-02-25 09:54:40.966,126536,57723,31986,5,419819,307828
2025-02-25 09:54:41.176,126577,57992,32129,6,419360,307583
2025-02-25 09:54:41.178,126739,58644,32443,5,418850,307508
2025-02-25 09:54:41.220,127133,59329,32744,3,418617,307742
2025-02-25 09:54:41.358,127270,59804,32925,4,418663,308019
2025-02-25 09:54:41.519,125771,58612,32082,4,417278,306409
2025-02-25 09:54:41.523,125192,57670,31550,3,416329,305197
2025-02-25 09:54:41.807,125388,57735,31731,5,416543,305170
2025-02-25 09:54:41.810,125181,57604,31670,5,416329,304910
2025-02-25 09:54:41.813,125555,57822,31784,3,416606,305299
2025-02-25 09:54:41.960,125835,58365,32142,4,417425,306127
2025-02-25 09:54:42.143,125745,58755,32410,2,417821,306597
2025-02-25 09:54:42.146,124114,57309,31467,3,416345,304906
2025-02-25 09:54:42.301,123276,55957,30708,5,415373,303607
2025-02-25 09:54:42.317,123563,56039,30891,4,415658,303938
2025-02-25 09:54:42.493,123422,56050,30988,2,415712,303971
2025-02-25 09:54:42.506,123408,56195,31133,6,415824,304092
2025-02-25 09:54:42.636,123754,56702,31510,3,416318,304695
2025-02-25 09:54:42.889,123939,57138,31847,3,416833,305273
2025-02-25 09:54:42.891,122257,55362,30791,4,415527,303314
2025-02-25 09:54:42.910,121343,53698,29917,6,414473,301515
2025-02-25 09:54:43.048,121593,53467,29961,6,414705,301501
2025-02-25 09:54:43.236,121929,53486,30061,4,414875,301612
2025-02-25 09:54:43.239,122233,53699,30243,6,414977,301720
2025-02-25 09:54:43.393,122622,54345,30694,5,415244,302285
2025-02-25 09:54:43.400,123017,54975,31211,3,416447,303445
2025-02-25 09:54:43.588,122147,54328,31033,3,417090,303243
2025-02-25 09:54:43.605,120197,51953,29589,5,415615,300596
2025-02-25 09:54:43.737,120250,51364,29305,5,415429,300090
2025-02-25 09:54:43.932,120730,51573,29399,5,415087,300114
2025-02-25 09:54:43.935,120845,51847,29508,4,415144,300418
2025-02-25 09:54:44.079,121513,52429,29874,4,415907,301337
2025-02-25 09:54:44.106,122321,53127,30319,6,416489,302261
2025-02-25 09:54:44.265,122747,53795,30794,4,417285,303294
2025-02-25 09:54:44.297,123324,54359,31234,3,417912,304086
2025-02-25 09:54:44.477,123859,54924,31676,4,418551,304855
2025-02-25 09:54:44.497,124020,55273,31962,4,418836,305241
2025-02-25 09:54:44.672,122985,53802,30685,5,417963,304204
2025-02-25 09:54:44.700,122834,52971,29956,4,417976,303935
2025-02-25 09:54:44.821,123141,53194,30101,5,418546,304560
2025-02-25 09:54:45.008,123175,53318,30169,4,418959,304914
2025-02-25 09:54:45.011,123395,53589,30382,5,419171,305188
2025-02-25 09:54:45.232,123740,54127,30804,5,419572,305742
2025-02-25 09:54:45.235,124104,54676,31209,6,419832,306253
2025-02-25 09:54:45.413,124465,55167,31593,5,420264,306884
2025-02-25 09:54:45.416,124839,55647,31980,3,420575,307424
2025-02-25 09:54:45.562,124809,55777,32031,3,420739,307768
2025-02-25 09:54:45.595,124023,54446,30689,5,419840,306758
2025-02-25 09:54:45.756,124217,54101,30332,3,419546,306556
2025-02-25 09:54:45.797,124481,54376,30482,4,419308,306695
2025-02-25 09:54:45.923,124578,54548,30525,6,419091,306775
2025-02-25 09:54:46.157,124801,54922,30820,2,419291,307158
2025-02-25 09:54:46.160,125030,55364,31223,2,419572,307592
2025-02-25 09:54:46.188,125280,55760,31592,6,419725,307960
2025-02-25 09:54:46.366,125621,56156,31933,3,419813,308332
2025-02-25 09:54:46.388,125955,56587,32299,6,419893,308719
2025-02-25 09:54:46.548,125549,56200,31833,7,419184,308322
2025-02-25 09:54:46.592,125267,55089,30684,5,418283,307537
2025-02-25 09:54:46.701,125469,55096,30676,4,418088,307646
2025-02-25 09:54:46.968,125450,55312,30817,6,418082,307914
2025-02-25 09:54:46.971,125629,55461,30867,4,417641,307827
2025-02-25 09:54:46.984,126456,56050,31126,6,416968,308057
2025-02-25 09:54:47.145,128164,57301,31562,5,416997,309833
2025-02-25 09:54:47.183,129474,58662,32116,4,417968,311944
2025-02-25 09:54:47.322,130223,59619,32537,4,418514,313054
2025-02-25 09:54:47.475,130772,60108,32599,4,418600,313563
2025-02-25 09:54:47.483,130522,59143,31566,5,418181,313158
2025-02-25 09:54:47.658,131852,58531,30936,4,416324,312263
2025-02-25 09:54:47.687,133241,56841,29816,3,405130,304637
2025-02-25 09:54:47.817,133644,54042,28304,5,390936,294063
2025-02-25 09:54:48.055,135402,54531,27963,5,390094,294193
2025-02-25 09:54:48.058,137449,56088,28069,4,393336,297702
2025-02-25 09:54:48.079,137341,57480,28779,2,394180,298759
2025-02-25 09:54:48.227,135036,57401,29008,5,392348,297277
2025-02-25 09:54:48.439,134369,55728,27665,7,390291,295363
2025-02-25 09:54:48.442,133227,55371,27421,5,387908,293765
2025-02-25 09:54:48.483,131439,56247,28150,7,386593,293081
2025-02-25 09:54:48.692,130338,57411,28754,7,389314,295075
2025-02-25 09:54:48.696,128476,58489,29364,6,393533,298014
2025-02-25 09:54:48.921,131170,57501,28275,7,391968,296635
2025-02-25 09:54:48.924,130517,57795,28242,4,392280,297190
2025-02-25 09:54:49.100,126598,58220,28359,5,395048,299014
2025-02-25 09:54:49.104,125915,58006,27950,4,397263,300570
2025-02-25 09:54:49.460,125780,57174,27610,5,396027,299587
2025-02-25 09:54:49.466,126910,56883,27470,7,395191,298805
2025-02-25 09:54:49.471,124343,58704,28587,4,402212,303929
2025-02-25 09:54:49.479,124999,59510,28545,5,412726,311445
2025-02-25 09:54:49.667,127160,57893,27267,7,409340,308708
2025-02-25 09:54:49.679,128809,55599,25815,5,405990,305877
2025-02-25 09:54:49.997,131007,55103,25786,4,408059,307634
2025-02-25 09:54:50.000,130153,54387,26099,8,402834,303537
2025-02-25 09:54:50.003,127057,53810,26416,4,397374,299832
2025-02-25 09:54:50.164,123191,54089,26966,6,396078,299436
2025-02-25 09:54:50.170,121939,54637,27061,5,400103,303563
2025-02-25 09:54:50.439,124738,54672,26528,4,399660,303321
2025-02-25 09:54:50.441,122384,55135,26593,5,403041,306137
2025-02-25 09:54:50.474,120486,56191,27262,6,410200,312416
2025-02-25 09:54:50.609,124299,55904,27346,5,406939,309502
2025-02-25 09:54:50.817,122435,55458,27533,3,407005,308420
2025-02-25 09:54:50.820,120740,54367,27500,5,402010,303607
2025-02-25 09:54:50.867,120605,54002,27536,2,397623,300708
2025-02-25 09:54:50.984,125464,53814,27278,3,402105,303216
2025-02-25 09:54:51.197,124558,53650,27468,4,405156,304308
2025-02-25 09:54:51.200,123084,53873,27727,6,405293,304436
2025-02-25 09:54:51.389,122541,54148,27921,6,406030,304803
2025-02-25 09:54:51.392,124060,55066,28535,5,412751,307946
2025-02-25 09:54:51.650,131554,53415,26712,5,413019,308078
2025-02-25 09:54:51.653,136210,51537,25854,3,412814,308999
2025-02-25 09:54:51.670,136476,51757,26743,3,423404,316660
2025-02-25 09:54:51.860,135221,51934,27134,5,422769,314838
2025-02-25 09:54:51.864,135942,51439,26197,5,416536,310191
2025-02-25 09:54:52.083,134701,52210,26280,6,414451,308531
2025-02-25 09:54:52.085,134941,53940,26583,4,420821,313732
2025-02-25 09:54:52.249,133890,53063,25627,5,415745,309885
2025-02-25 09:54:52.262,133039,51699,24612,6,410142,305514
2025-02-25 09:54:52.454,132318,52117,24797,6,409067,304834
2025-02-25 09:54:52.465,132071,53109,25147,6,410633,306225
2025-02-25 09:54:52.611,131740,53610,25304,3,411026,307060
2025-02-25 09:54:52.653,134178,54581,25725,6,413624,310056
2025-02-25 09:54:52.811,134988,55654,26558,5,414128,310566
2025-02-25 09:54:52.858,133192,55852,26702,6,413736,310050
2025-02-25 09:54:52.976,132238,54609,25769,4,413584,309371
2025-02-25 09:54:53.228,131573,54451,25772,4,413699,309229
2025-02-25 09:54:53.231,131319,54447,25813,5,411751,307804
2025-02-25 09:54:53.258,131644,54751,25841,4,408069,305191
2025-02-25 09:54:53.384,130593,55747,26068,3,407228,305104
2025-02-25 09:54:53.584,130777,56892,26550,3,408168,306342
2025-02-25 09:54:53.587,130144,57537,26704,5,409491,307488
2025-02-25 09:54:53.804,129004,56580,25910,3,409028,306840
2025-02-25 09:54:53.806,129102,56256,25877,3,409177,307074
2025-02-25 09:54:53.993,129697,56625,26376,2,409563,307672
2025-02-25 09:54:53.996,130936,57354,26721,5,412313,309973
2025-02-25 09:54:54.147,130658,57906,27160,7,412726,310482
2025-02-25 09:54:54.153,130069,58396,27714,4,411869,310114
2025-02-25 09:54:54.344,129951,58386,27621,5,411683,309903
2025-02-25 09:54:54.357,129787,57568,26757,4,412167,309856
2025-02-25 09:54:54.506,130837,57633,26670,4,414612,311708
2025-02-25 09:54:54.703,133727,57867,26760,5,418932,315494
2025-02-25 09:54:54.706,134276,58084,27422,2,418061,314855
2025-02-25 09:54:54.749,133472,58671,28133,2,416414,313483
2025-02-25 09:54:54.923,133102,59157,28449,4,416213,313332
2025-02-25 09:54:54.948,132435,59041,28365,4,416024,313033
2025-02-25 09:54:55.113,131615,57812,27381,3,415581,312285
2025-02-25 09:54:55.140,131834,57197,27133,5,415841,312484
2025-02-25 09:54:55.271,131475,57004,27402,4,413805,310752
2025-02-25 09:54:55.480,131461,56919,27469,4,411408,308705
2025-02-25 09:54:55.483,131877,57281,27516,2,410079,307886
2025-02-25 09:54:55.710,132244,57569,27522,8,407348,306251
2025-02-25 09:54:55.712,133016,57918,27474,4,404742,305173
2025-02-25 09:54:55.732,132837,57932,26843,4,404095,305037
2025-02-25 09:54:55.904,132605,58461,26689,4,405538,306353
2025-02-25 09:54:55.936,132380,59402,27116,3,407584,308109
2025-02-25 09:54:56.057,132229,59999,27391,8,409065,309275
2025-02-25 09:54:56.256,132076,60303,27598,3,409349,309560
2025-02-25 09:54:56.258,132534,60579,27869,4,409359,309892
2025-02-25 09:54:56.417,133495,61088,28389,4,410095,310882
2025-02-25 09:54:56.440,132933,60663,28183,6,409488,310326
2025-02-25 09:54:56.624,132742,59538,27484,3,408969,309714
2025-02-25 09:54:56.627,132874,59282,27605,5,408774,309561
2025-02-25 09:54:56.829,133124,59310,27875,4,408308,309359
2025-02-25 09:54:56.832,133270,59488,28183,4,408107,309313
2025-02-25 09:54:57.028,133373,59876,28603,5,408024,309441
2025-02-25 09:54:57.032,133460,60434,29105,4,408368,309914
2025-02-25 09:54:57.261,132438,60161,28961,3,408029,309532
2025-02-25 09:54:57.263,131872,58780,27965,5,407154,308437
2025-02-25 09:54:57.448,132016,58550,27992,5,406910,308272
2025-02-25 09:54:57.450,132132,58756,28292,3,406872,308382
2025-02-25 09:54:57.600,132260,59005,28550,6,407023,308594
2025-02-25 09:54:57.623,132560,59442,28914,6,407307,309012
2025-02-25 09:54:57.787,132729,60030,29420,5,407698,309540
2025-02-25 09:54:57.824,132292,59688,29175,5,407272,309231
2025-02-25 09:54:57.946,132125,58750,28488,4,407942,309601
2025-02-25 09:54:58.135,132253,58872,28769,5,408889,310447
2025-02-25 09:54:58.138,132447,59306,29238,3,410731,312104
2025-02-25 09:54:58.348,133094,59709,29763,4,413943,314794
2025-02-25 09:54:58.350,133364,60014,30377,4,414403,315127
2025-02-25 09:54:58.540,133464,60334,30957,4,414310,315012
2025-02-25 09:54:58.544,132665,59312,30465,6,413509,313944
2025-02-25 09:54:58.699,132420,58195,29881,4,412714,312745
2025-02-25 09:54:58.719,132543,58125,30079,4,412065,311965
2025-02-25 09:54:58.890,132659,58097,30225,3,411434,311160
2025-02-25 09:54:58.923,132554,57983,30330,5,409592,309442
2025-02-25 09:54:59.124,132461,58170,30510,6,407595,307755
2025-02-25 09:54:59.126,132026,58358,30553,4,406536,306886
2025-02-25 09:54:59.320,131249,57128,29514,3,405713,305662
2025-02-25 09:54:59.322,131232,56828,29220,3,405620,305293
2025-02-25 09:54:59.478,131332,57106,29418,4,405767,305429
2025-02-25 09:54:59.515,131350,57280,29554,5,405754,305307
2025-02-25 09:54:59.676,131385,57705,29823,4,405994,305529
2025-02-25 09:54:59.715,131532,58174,30199,4,406356,305888
2025-02-25 09:54:59.828,130944,57544,29782,4,405989,305291
2025-02-25 09:55:00.020,130538,56412,28911,5,405599,304321
2025-02-25 09:55:00.023,130512,56479,28980,5,405681,304231
2025-02-25 09:55:00.240,130356,56605,29132,3,405732,304162
2025-02-25 09:55:00.242,130356,56699,29289,3,406022,304237
2025-02-25 09:55:00.437,130414,56992,29628,2,406318,304416
2025-02-25 09:55:00.439,130054,57013,29776,5,406151,304085
2025-02-25 09:55:00.594,129014,55553,28683,5,405169,302522
2025-02-25 09:55:00.611,128814,55133,28343,5,404937,301991
2025-02-25 09:55:00.808,128686,55320,28515,4,405003,301981
2025-02-25 09:55:00.811,128632,55331,28595,5,405141,301950
2025-02-25 09:55:00.973,128798,55597,28856,4,405380,302164
2025-02-25 09:55:01.014,128945,56010,29229,4,405706,302508
2025-02-25 09:55:01.159,128086,55154,28595,3,405123,301623
2025-02-25 09:55:01.207,127682,54286,27820,5,404701,300806
2025-02-25 09:55:01.319,127827,54545,28009,5,404893,300971
2025-02-25 09:55:01.515,127917,54761,28191,4,405205,301228
2025-02-25 09:55:01.517,128152,55050,28413,5,405612,301578
2025-02-25 09:55:01.672,128481,55559,28827,3,406136,302112
2025-02-25 09:55:01.705,128431,55834,29081,2,406514,302467
2025-02-25 09:55:01.929,127451,54548,28012,7,405972,301311
2025-02-25 09:55:01.931,127165,54153,27672,5,405961,300842
2025-02-25 09:55:02.127,127072,54338,27899,4,406306,300922
2025-02-25 09:55:02.130,127005,54359,27993,3,406599,300943
2025-02-25 09:55:02.338,127019,54599,28263,5,406957,301054
2025-02-25 09:55:02.340,127076,54962,28649,4,407330,301245
2025-02-25 09:55:02.560,126777,54972,28738,5,407402,301162
2025-02-25 09:55:02.563,125807,53628,27605,4,406969,299987
2025-02-25 09:55:02.603,125711,53278,27358,4,406970,299614
2025-02-25 09:55:02.749,125838,53479,27596,4,407211,299708
2025-02-25 09:55:02.907,126384,53603,27698,4,407936,300164
2025-02-25 09:55:02.910,127257,53971,28024,4,409092,301082
2025-02-25 09:55:03.104,127485,54539,28501,4,409578,301647
2025-02-25 09:55:03.106,127569,54985,28929,3,409924,302015
2025-02-25 09:55:03.262,127402,55108,29125,5,410203,302267
2025-02-25 09:55:03.297,126058,53778,28141,5,409515,300955
2025-02-25 09:55:03.513,125913,53363,27879,4,409310,300425
2025-02-25 09:55:03.516,126215,53476,28080,5,409522,300512
2025-02-25 09:55:03.664,126524,53471,28150,6,409835,300576
2025-02-25 09:55:03.697,126888,53723,28377,4,410170,300840
2025-02-25 09:55:03.854,127202,54121,28748,6,410588,301224
2025-02-25 09:55:03.889,127128,54177,28872,4,410734,301337
2025-02-25 09:55:04.013,126452,53113,28046,5,410430,300538
2025-02-25 09:55:04.268,126456,52974,27983,5,410600,300457
2025-02-25 09:55:04.271,126439,53165,28252,2,410888,300625
2025-02-25 09:55:04.293,126346,53142,28352,2,411012,300535
2025-02-25 09:55:04.423,126435,53330,28602,2,411310,300689
2025-02-25 09:55:04.618,126530,53577,28929,5,411650,300868
2025-02-25 09:55:04.621,125850,52957,28447,5,410952,299949
2025-02-25 09:55:04.773,125487,52254,27660,4,410592,299281
2025-02-25 09:55:04.797,125605,52435,27737,3,410737,299408
2025-02-25 09:55:04.976,125570,52613,27881,4,410697,299341
2025-02-25 09:55:04.984,125606,52772,27968,3,410692,299293
2025-02-25 09:55:05.129,125786,53097,28239,3,411007,299600
2025-02-25 09:55:05.315,125621,53182,28355,4,411215,299730
2025-02-25 09:55:05.318,124667,52053,27438,5,410795,298795
2025-02-25 09:55:05.535,124362,51681,27134,5,410841,298507
2025-02-25 09:55:05.538,124249,51822,27351,4,411208,298696
2025-02-25 09:55:05.725,124095,51785,27436,3,411423,298674
2025-02-25 09:55:05.728,124151,51925,27647,6,411808,298911
2025-02-25 09:55:05.955,124284,52198,27981,3,412223,299263
2025-02-25 09:55:05.958,123730,51664,27619,3,412106,298926
2025-02-25 09:55:05.981,123164,50774,26854,4,411815,298196
2025-02-25 09:55:06.138,122927,50795,26928,4,411868,298127
2025-02-25 09:55:06.184,122628,50798,27101,3,411898,297955
2025-02-25 09:55:06.294,122721,50845,27220,5,411904,297858
2025-02-25 09:55:06.483,122966,51113,27537,5,412072,298067
2025-02-25 09:55:06.486,123093,51326,27768,6,411832,298094
2025-02-25 09:55:06.635,122679,50571,27015,3,411114,297348
2025-02-25 09:55:06.683,122994,50414,26807,4,411044,297404
2025-02-25 09:55:06.830,123137,50764,27159,5,410852,297526
2025-02-25 09:55:06.876,123083,50924,27347,4,410641,297514
2025-02-25 09:55:07.042,123153,51165,27636,4,410787,297691
2025-02-25 09:55:07.079,123351,51534,28031,5,410929,297995
2025-02-25 09:55:07.228,123614,51980,28398,3,410627,298123
2025-02-25 09:55:07.386,124283,52488,28705,4,410383,298407
2025-02-25 09:55:07.388,124635,52869,28817,5,410292,298828
2025-02-25 09:55:07.581,124349,52188,27808,6,409963,298604
2025-02-25 09:55:07.584,124544,52113,27611,4,410104,298870
2025-02-25 09:55:07.798,124713,52387,27815,3,409977,299051
2025-02-25 09:55:07.801,125013,52634,27902,4,409824,299272
2025-02-25 09:55:07.984,125385,53119,28192,5,409851,299727
2025-02-25 09:55:07.987,125691,53683,28609,5,410003,300282
2025-02-25 09:55:08.140,126008,54202,29011,5,410202,300820
2025-02-25 09:55:08.175,126350,54703,29386,2,410381,301375
2025-02-25 09:55:08.329,126519,55074,29597,4,410406,301727
2025-02-25 09:55:08.376,126361,54615,28692,4,410211,301645
2025-02-25 09:55:08.483,126667,54554,28396,4,410457,302013
2025-02-25 09:55:08.670,126670,54860,28658,5,410601,302357
2025-02-25 09:55:08.679,126598,55083,28792,3,410699,302584
2025-02-25 09:55:08.887,126532,55357,29030,3,410967,302914
2025-02-25 09:55:08.890,126381,55679,29388,4,411070,303071
2025-02-25 09:55:09.070,126318,56041,29737,4,411072,303196
2025-02-25 09:55:09.072,126266,56396,30030,3,411101,303349
2025-02-25 09:55:09.222,126366,56782,30308,4,411066,303574
2025-02-25 09:55:09.272,126197,57003,30202,8,410992,303784
2025-02-25 09:55:09.418,126094,56770,29253,4,410798,303752
2025-02-25 09:55:09.568,126314,56898,29135,4,410739,303921
2025-02-25 09:55:09.571,126359,57181,29301,4,410562,304052
2025-02-25 09:55:09.758,126440,57442,29392,6,410622,304336
2025-02-25 09:55:09.763,126641,57771,29647,4,410604,304602
2025-02-25 09:55:09.917,126895,58149,30019,4,410918,305154
2025-02-25 09:55:10.112,127114,58494,30393,5,411058,305551
2025-02-25 09:55:10.115,127295,58832,30757,4,411289,306007
2025-02-25 09:55:10.279,127381,59165,31099,5,411308,306199
2025-02-25 09:55:10.282,126920,59196,30791,4,411021,306081
2025-02-25 09:55:10.461,126777,59022,30035,4,410937,306075
2025-02-25 09:55:10.466,126856,59082,30047,5,411197,306398
2025-02-25 09:55:10.682,127120,59160,30217,4,411725,306861
2025-02-25 09:55:10.685,127394,59233,30328,4,412218,307242
2025-02-25 09:55:10.866,127357,59394,30567,7,412373,307453
2025-02-25 09:55:10.869,127350,59552,30860,5,412534,307646
2025-02-25 09:55:11.090,127320,59669,31132,4,412617,307762
2025-02-25 09:55:11.093,127267,59585,30962,3,412243,307505
2025-02-25 09:55:11.281,127420,59322,30311,5,412134,307334
2025-02-25 09:55:11.284,127694,59318,30241,3,411822,307157
2025-02-25 09:55:11.437,127962,59419,30311,4,411124,306906
2025-02-25 09:55:11.461,128213,59654,30346,4,410517,306878
2025-02-25 09:55:11.629,128368,59966,30538,4,410004,306883
2025-02-25 09:55:11.654,128337,60225,30819,4,409483,306810
2025-02-25 09:55:11.789,127824,60252,30701,3,408458,306261
2025-02-25 09:55:11.980,127629,59900,30060,3,407912,305868
2025-02-25 09:55:11.982,127710,59727,30012,3,407882,305879
2025-02-25 09:55:12.159,127622,59608,30099,6,407730,305765
2025-02-25 09:55:12.163,127470,59456,30115,3,407696,305631
2025-02-25 09:55:12.431,127462,59333,30184,4,407547,305440
2025-02-25 09:55:12.434,127371,59257,30275,3,407149,305179
2025-02-25 09:55:12.449,126988,58686,29685,2,406473,304668
2025-02-25 09:55:12.581,127007,58082,29254,4,406257,304473
2025-02-25 09:55:12.843,126918,57834,29323,4,406075,304399
2025-02-25 09:55:12.846,126718,57538,29309,4,405810,304164
2025-02-25 09:55:12.849,126658,57289,29338,4,405673,304074
2025-02-25 09:55:12.991,126644,57164,29501,5,405633,304109
2025-02-25 09:55:13.182,126192,56692,29265,2,405366,303850
2025-02-25 09:55:13.185,125843,55758,28639,4,405026,303351
2025-02-25 09:55:13.337,125726,55344,28614,2,404786,303075
2025-02-25 09:55:13.345,125365,55119,28661,6,404325,302671
2025-02-25 09:55:13.554,125071,54885,28632,4,403822,302273
2025-02-25 09:55:13.558,125126,54857,28745,2,403329,301972
2025-02-25 09:55:13.729,124900,54736,28732,3,403111,301844
2025-02-25 09:55:13.745,124284,53927,28034,3,402486,301147
2025-02-25 09:55:13.925,123805,53577,27836,4,401942,300599
2025-02-25 09:55:13.949,123288,53453,27909,4,401563,300228
2025-02-25 09:55:14.143,122965,53215,27891,4,401639,300062
2025-02-25 09:55:14.149,122732,53181,27974,4,400742,299398
2025-02-25 09:55:14.339,122447,53287,28071,4,399663,298811
2025-02-25 09:55:14.341,122498,52896,27593,2,399226,298468
2025-02-25 09:55:14.618,122924,52621,27219,3,399544,298759
2025-02-25 09:55:14.621,122785,52847,27364,5,398915,298572
2025-02-25 09:55:14.641,122784,53121,27529,3,398541,298562
2025-02-25 09:55:14.813,123014,53456,27728,4,398325,298681
2025-02-25 09:55:14.841,123244,53958,28048,5,398020,298839
2025-02-25 09:55:14.958,123611,54468,28384,4,397999,299220
2025-02-25 09:55:15.161,124083,54920,28713,5,398218,299727
2025-02-25 09:55:15.164,124355,55358,29032,3,398250,300078
2025-02-25 09:55:15.315,124113,55321,28727,5,397903,299955
2025-02-25 09:55:15.336,124093,55129,28257,4,397739,299832
2025-02-25 09:55:15.509,124217,55302,28346,4,397676,299954
2025-02-25 09:55:15.537,124293,55495,28517,3,397661,300084
2025-02-25 09:55:15.723,124512,55733,28706,4,397694,300263
2025-02-25 09:55:15.736,124817,56099,29010,5,397753,300508
2025-02-25 09:55:15.912,125155,56528,29362,6,398073,301005
2025-02-25 09:55:15.940,125376,56922,29691,5,398259,301375
2025-02-25 09:55:16.064,125601,57304,30018,4,398454,301764
2025-02-25 09:55:16.319,125545,57409,30085,4,398462,301907
2025-02-25 09:55:16.321,125294,56865,29494,4,398182,301552
2025-02-25 09:55:16.332,125391,56654,29353,3,398228,301589
2025-02-25 09:55:16.465,125497,56656,29475,4,398313,301740
2025-02-25 09:55:16.655,125664,56659,29606,4,398395,301905
2025-02-25 09:55:16.658,125944,56862,29849,1,398585,302235
2025-02-25 09:55:16.817,126246,57213,30187,4,398831,302693
2025-02-25 09:55:16.836,126222,57537,30535,4,399409,303282
2025-02-25 09:55:17.010,126467,57780,30821,3,399555,303532
2025-02-25 09:55:17.024,126809,58121,31125,5,399816,303953
2025-02-25 09:55:17.165,127236,58483,31409,4,400188,304469
2025-02-25 09:55:17.358,126958,58106,31034,3,400103,304399
2025-02-25 09:55:17.361,126937,57602,30501,3,400112,304291
2025-02-25 09:55:17.572,126990,57541,30429,4,400204,304401
2025-02-25 09:55:17.574,127012,57543,30441,4,400243,304491
2025-02-25 09:55:17.751,127218,57628,30509,5,400435,304714
2025-02-25 09:55:17.753,127467,57914,30745,6,400764,305097
2025-02-25 09:55:17.907,127760,58250,31013,5,401090,305508
2025-02-25 09:55:17.931,128056,58594,31279,3,401471,305955
2025-02-25 09:55:18.097,128282,58965,31554,5,401772,306378
2025-02-25 09:55:18.120,128524,59339,31858,4,402072,306805
2025-02-25 09:55:18.255,128701,59643,32107,4,402336,307210
2025-02-25 09:55:18.445,128231,59065,31533,6,402112,306890
2025-02-25 09:55:18.448,128257,58513,30974,4,402122,306731
2025-02-25 09:55:18.594,128521,58394,30909,3,402549,306997
2025-02-25 09:55:18.624,128759,58360,30912,4,403008,307336
2025-02-25 09:55:18.788,128858,58409,30995,3,403488,307692
2025-02-25 09:55:18.827,128858,58551,31214,5,403764,307905
2025-02-25 09:55:18.949,128723,58667,31459,4,403738,307851
2025-02-25 09:55:19.135,128582,58737,31668,4,403545,307649
2025-02-25 09:55:19.137,128556,58823,31875,4,403496,307572
2025-02-25 09:55:19.356,128531,58912,32088,4,403586,307601
2025-02-25 09:55:19.358,127992,58419,31815,4,403414,307197
2025-02-25 09:55:19.542,127515,57448,31100,4,402933,306344
2025-02-25 09:55:19.544,127235,57262,31006,4,402287,305717
2025-02-25 09:55:19.761,126739,57450,30948,5,400533,304377
2025-02-25 09:55:19.763,127045,57792,30739,3,400577,304716
2025-02-25 09:55:19.946,127509,58096,30783,4,401148,305413
2025-02-25 09:55:19.949,127673,58358,30969,4,401327,305649
2025-02-25 09:55:20.093,127791,58480,31141,4,401555,305859
2025-02-25 09:55:20.114,127337,57840,30792,6,401353,305478
2025-02-25 09:55:20.277,126896,56827,30139,3,400944,304720
2025-02-25 09:55:20.315,126707,56552,30093,3,400906,304441
2025-02-25 09:55:20.452,126484,56306,30101,4,400852,304188
2025-02-25 09:55:20.644,126292,56067,30067,5,400710,303860
2025-02-25 09:55:20.647,126169,56082,30222,6,400687,303705
2025-02-25 09:55:20.860,126067,56159,30421,4,400568,303507
2025-02-25 09:55:20.862,125700,55563,30078,5,400392,303035
2025-02-25 09:55:20.906,125264,54508,29311,5,400049,302218
2025-02-25 09:55:21.050,125151,54316,29194,4,399909,301881
2025-02-25 09:55:21.098,125155,54313,29263,4,400024,301829
2025-02-25 09:55:21.205,125108,54207,29255,4,400148,301708
2025-02-25 09:55:21.395,125094,54326,29422,5,400241,301675
2025-02-25 09:55:21.398,125127,54456,29636,5,400426,301743
2025-02-25 09:55:21.612,124683,53601,29096,5,400269,301136
2025-02-25 09:55:21.615,124405,52798,28451,4,400090,300436
2025-02-25 09:55:21.800,124405,52878,28500,5,400063,300269
2025-02-25 09:55:21.802,124420,53033,28577,4,399920,300019
2025-02-25 09:55:21.957,124191,53440,28626,3,399222,299428
2025-02-25 09:55:21.994,124478,53974,28815,4,399701,299924
2025-02-25 09:55:22.144,124549,54203,28970,3,399882,300049
2025-02-25 09:55:22.300,124020,53200,28224,3,399701,299348
2025-02-25 09:55:22.303,123668,52720,27836,4,399516,298779
2025-02-25 09:55:22.531,123593,52889,27993,6,399495,298602
2025-02-25 09:55:22.533,123550,52949,28084,5,399483,298443
2025-02-25 09:55:22.749,123649,53137,28250,4,399548,298434
2025-02-25 09:55:22.752,123815,53478,28554,3,399596,298528
2025-02-25 09:55:22.790,124148,53780,28857,3,399998,298921
2025-02-25 09:55:22.927,123807,53027,28380,4,399895,298526
2025-02-25 09:55:23.082,123624,52381,27844,5,399582,297953
2025-02-25 09:55:23.090,123789,52659,27992,5,399380,297835
2025-02-25 09:55:23.340,124003,52976,28185,4,399441,297983
2025-02-25 09:55:23.342,124265,53277,28347,4,399570,298196
2025-02-25 09:55:23.493,124666,53790,28683,6,399899,298636
2025-02-25 09:55:23.496,124992,54337,29066,3,400241,299110
2025-02-25 09:55:23.681,125326,54847,29420,4,400457,299552
2025-02-25 09:55:23.684,125712,55323,29743,5,400656,299982
2025-02-25 09:55:23.831,125478,55043,29446,3,400407,299833
2025-02-25 09:55:24.023,125279,54238,28703,3,400257,299468
2025-02-25 09:55:24.026,125381,54343,28741,5,400303,299562
2025-02-25 09:55:24.173,125531,54558,28905,3,400506,299858
2025-02-25 09:55:24.186,125727,54686,29027,5,400697,300074
2025-02-25 09:55:24.436,126097,55047,29342,4,401030,300529
2025-02-25 09:55:24.439,126443,55522,29752,4,401285,300977
2025-02-25 09:55:24.583,126785,55970,30147,3,401601,301475
2025-02-25 09:55:24.589,126758,55992,30208,4,401622,301642
2025-02-25 09:55:24.771,126363,54958,29415,4,401346,301148
2025-02-25 09:55:24.781,126378,54666,29271,3,401267,301031
2025-02-25 09:55:24.996,126455,54802,29469,6,401287,301144
2025-02-25 09:55:24.999,126687,54839,29599,4,401592,301402
2025-02-25 09:55:25.176,127035,55097,29864,4,401964,301828
2025-02-25 09:55:25.181,127399,55557,30253,4,402283,302335
2025-02-25 09:55:25.336,127878,56073,30656,4,402604,302907
2025-02-25 09:55:25.382,128248,56560,31031,4,402923,303473
2025-02-25 09:55:25.526,127889,56021,30700,4,402790,303381
2025-02-25 09:55:25.677,127804,54969,30015,5,402507,302944
2025-02-25 09:55:25.680,128040,54949,30024,2,402478,303036
2025-02-25 09:55:25.869,128256,55226,30212,2,402683,303439
2025-02-25 09:55:25.877,128606,55470,30373,1,403107,303927
2025-02-25 09:55:26.083,129035,55928,30696,3,403560,304490
2025-02-25 09:55:26.086,129432,56480,31079,5,403982,305051
2025-02-25 09:55:26.262,129767,57019,31458,3,404412,305636
2025-02-25 09:55:26.276,129950,57455,31767,4,404747,306100
2025-02-25 09:55:26.417,129372,56492,31209,4,404459,305630
2025-02-25 09:55:26.615,129345,55719,30752,4,404587,305425
2025-02-25 09:55:26.618,129484,55794,30865,5,404807,305555
2025-02-25 09:55:26.770,129556,55948,31019,4,405088,305761
2025-02-25 09:55:26.773,129783,56115,31166,3,405501,306031
2025-02-25 09:55:26.962,129965,56502,31474,4,405986,306449
2025-02-25 09:55:26.972,129918,56905,31827,4,406322,306685
2025-02-25 09:55:27.127,129628,57023,32008,4,406467,306636
2025-02-25 09:55:27.172,128861,55779,31282,3,405904,305595
2025-02-25 09:55:27.315,128752,55341,30934,5,405405,304945
2025-02-25 09:55:27.474,128756,55634,31082,4,405351,304905
2025-02-25 09:55:27.477,128642,55715,31062,5,405109,304673
2025-02-25 09:55:27.662,128782,55965,31147,3,405024,304694
2025-02-25 09:55:27.665,129097,56365,31363,4,405185,304962
2025-02-25 09:55:27.905,129097,56630,31519,3,405254,305085
2025-02-25 09:55:27.907,128487,55663,30846,3,404724,304174
2025-02-25 09:55:28.090,128453,55409,30546,3,404499,303691
2025-02-25 09:55:28.092,128494,55746,30690,4,404670,303783
2025-02-25 09:55:28.250,128451,55857,30722,5,404786,303730
2025-02-25 09:55:28.267,128547,56114,30836,5,404971,303827
2025-02-25 09:55:28.509,128646,56519,31086,3,405212,304024
2025-02-25 09:55:28.512,128231,56235,30883,5,405043,303643
2025-02-25 09:55:28.661,127557,55242,30073,2,404670,302675
2025-02-25 09:55:28.664,127397,55251,29950,3,404623,302361
2025-02-25 09:55:28.851,127348,55457,30049,3,404869,302420
2025-02-25 09:55:28.864,127244,55526,30074,5,405049,302357
2025-02-25 09:55:29.009,127209,55808,30269,5,405273,302401
2025-02-25 09:55:29.210,126963,55989,30410,2,405365,302343
2025-02-25 09:55:29.212,126104,54854,29611,4,404932,301253
2025-02-25 09:55:29.255,125771,54405,29190,3,404700,300580
2025-02-25 09:55:29.414,125680,54654,29297,3,404893,300554
2025-02-25 09:55:29.454,125466,54757,29361,3,405308,300612
2025-02-25 09:55:29.600,125353,54884,29476,6,405601,300601
2025-02-25 09:55:29.757,125209,55212,29731,4,405689,300592
2025-02-25 09:55:29.761,124506,54687,29344,6,405357,299922
2025-02-25 09:55:29.953,123915,53895,28663,4,405136,299093
2025-02-25 09:55:29.959,123798,54006,28699,3,405236,298911
2025-02-25 09:55:30.172,123881,54190,28843,2,405616,298999
2025-02-25 09:55:30.174,123748,54353,28959,5,405903,298986
2025-02-25 09:55:30.352,123611,54746,29214,4,405770,298882
2025-02-25 09:55:30.355,123566,54906,29340,4,405652,298752
2025-02-25 09:55:30.512,123099,54044,28618,4,405229,297873
2025-02-25 09:55:30.551,123042,53918,28415,3,404943,297427
2025-02-25 09:55:30.708,123291,54255,28651,6,404918,297455
2025-02-25 09:55:30.755,123507,54488,28811,4,405064,297586
2025-02-25 09:55:30.887,123807,54879,29087,5,405362,297898
2025-02-25 09:55:31.079,124150,55380,29456,5,405697,298348
2025-02-25 09:55:31.082,124262,55654,29666,3,406010,298692
2025-02-25 09:55:31.237,123659,54865,29011,5,405961,298153
2025-02-25 09:55:31.246,123531,54775,28897,3,406141,297982
2025-02-25 09:55:31.486,123629,55099,29159,4,406395,298171
2025-02-25 09:55:31.489,123742,55302,29322,2,406702,298352
2025-02-25 09:55:31.630,124022,55687,29600,3,407087,298735
2025-02-25 09:55:31.650,124378,56197,29983,4,407408,299190
2025-02-25 09:55:31.891,124699,56731,30368,6,407701,299625
2025-02-25 09:55:31.895,124521,56757,30366,4,407682,299654
2025-02-25 09:55:32.049,123995,55939,29625,3,407441,299010
2025-02-25 09:55:32.051,123957,55986,29600,3,407643,299032
2025-02-25 09:55:32.234,123972,56222,29835,2,407917,299247
2025-02-25 09:55:32.242,124108,56359,29994,3,408244,299477
2025-02-25 09:55:32.405,124427,56696,30287,3,408632,299856
2025-02-25 09:55:32.446,124807,57156,30685,4,409093,300394
2025-02-25 09:55:32.634,125186,57589,31044,5,409462,300901
2025-02-25 09:55:32.645,124795,57174,30754,5,409395,300729
2025-02-25 09:55:32.786,124476,56388,30067,3,409109,300159
2025-02-25 09:55:32.976,124793,56524,30127,4,409316,300411
2025-02-25 09:55:32.979,125040,56752,30342,3,409722,300847
2025-02-25 09:55:33.193,125381,56956,30512,4,409966,301184
2025-02-25 09:55:33.196,125816,57399,30860,4,410260,301705
2025-02-25 09:55:33.238,126313,57939,31282,5,410639,302352
2025-02-25 09:55:33.385,126825,58470,31692,4,411006,303001
2025-02-25 09:55:33.614,126870,58618,31811,4,411074,303297
2025-02-25 09:55:33.617,126571,57796,31115,4,410810,302873
2025-02-25 09:55:33.642,126805,57726,31026,4,410887,303001
2025-02-25 09:55:33.798,127072,58022,31259,5,411108,303401
2025-02-25 09:55:33.841,127355,58215,31426,2,411371,303784
2025-02-25 09:55:33.945,127713,58554,31712,3,411745,304290
2025-02-25 09:55:34.140,128086,59019,32105,2,412043,304832
2025-02-25 09:55:34.143,128435,59486,32501,3,412372,305398
2025-02-25 09:55:34.302,128592,59768,32761,4,412548,305779
2025-02-25 09:55:34.332,128180,58984,32193,3,412396,305474
2025-02-25 09:55:34.498,128417,58643,31939,4,412500,305560
2025-02-25 09:55:34.536,128827,58842,32140,7,413010,306155
2025-02-25 09:55:34.707,129002,59014,32312,3,413343,306556
2025-02-25 09:55:34.737,129109,59254,32522,2,413527,306840
2025-02-25 09:55:34.885,129224,59573,32840,3,413972,307268
2025-02-25 09:55:34.930,129255,59850,33156,4,414261,307517
2025-02-25 09:55:35.039,128745,59572,33037,2,413847,307085
2025-02-25 09:55:35.233,128383,58785,32476,4,413483,306522
2025-02-25 09:55:35.235,128404,58731,32490,3,413381,306456
2025-02-25 09:55:35.388,128389,58784,32629,3,413437,306532
2025-02-25 09:55:35.434,128366,58753,32691,5,413481,306550
2025-02-25 09:55:35.577,128409,58880,32884,4,413535,306623
2025-02-25 09:55:35.734,128470,59117,33135,3,413556,306738
2025-02-25 09:55:35.739,127983,58763,32929,4,413208,306359
2025-02-25 09:55:35.929,127662,58008,32374,6,412798,305788
2025-02-25 09:55:35.932,127643,57974,32398,4,412723,305741
2025-02-25 09:55:36.078,127570,57989,32475,3,412695,305720
2025-02-25 09:55:36.124,127519,57958,32510,4,412687,305700
2025-02-25 09:55:36.269,127636,58093,32668,5,412777,305848
2025-02-25 09:55:36.477,127571,58214,32807,5,412718,305891
2025-02-25 09:55:36.479,126944,57362,32153,5,412246,305233
2025-02-25 09:55:36.665,126888,56829,31732,3,412064,304893
2025-02-25 09:55:36.668,126939,56869,31778,3,412062,304906
2025-02-25 09:55:36.814,126886,56869,31798,5,412090,304868
2025-02-25 09:55:36.819,126848,56943,31870,2,412004,304822
2025-02-25 09:55:37.076,126934,57163,32037,4,411838,304789
2025-02-25 09:55:37.079,126601,56866,31785,4,411596,304512
2025-02-25 09:55:37.120,126274,56103,31069,3,411295,303931
2025-02-25 09:55:37.223,126293,56112,30980,5,411233,303890
2025-02-25 09:55:37.412,126303,56249,31067,4,411241,303916
2025-02-25 09:55:37.423,126387,56336,31119,2,411371,303997
2025-02-25 09:55:37.563,126552,56599,31307,4,411505,304147
2025-02-25 09:55:37.759,126654,56846,31488,3,411545,304342
2025-02-25 09:55:37.762,126180,56237,30901,4,411124,303764
2025-02-25 09:55:37.909,126037,56032,30564,4,410886,303418
2025-02-25 09:55:37.914,126158,56280,30711,5,410928,303456
2025-02-25 09:55:38.098,126191,56450,30842,4,411130,303575
2025-02-25 09:55:38.118,126280,56733,31016,4,411160,303623
2025-02-25 09:55:38.308,126469,57128,31299,5,411346,303881
2025-02-25 09:55:38.318,126433,57344,31448,5,411390,303984
2025-02-25 09:55:38.491,125923,56782,30836,5,411096,303373
2025-02-25 09:55:38.510,125815,56780,30647,4,410986,303151
2025-02-25 09:55:38.710,125780,57087,30821,4,410831,303061
2025-02-25 09:55:38.713,125720,57271,30918,4,410674,302928
2025-02-25 09:55:38.897,125900,57581,31134,4,410660,302996
2025-02-25 09:55:38.911,126231,58004,31458,3,410656,303190
2025-02-25 09:55:39.056,126626,58461,31794,3,410747,303495
2025-02-25 09:55:39.253,126505,58480,31728,5,410573,303402
2025-02-25 09:55:39.255,126326,58123,31189,4,410321,303021
2025-02-25 09:55:39.422,126447,58345,31242,3,410127,302994
2025-02-25 09:55:39.425,126585,58617,31445,5,410022,303084
2025-02-25 09:55:39.629,126827,58821,31600,3,410149,303309
2025-02-25 09:55:39.632,127170,59180,31902,4,410332,303655
2025-02-25 09:55:39.781,127476,59614,32272,5,410491,304041
2025-02-25 09:55:39.806,127823,60035,32627,3,410679,304441
2025-02-25 09:55:40.032,127661,60079,32596,4,410469,304451
2025-02-25 09:55:40.034,127569,59641,32068,2,410182,304152
2025-02-25 09:55:40.181,127839,59780,32115,5,410083,304285
2025-02-25 09:55:40.210,128118,60028,32299,3,410146,304578
2025-02-25 09:55:40.376,128460,60238,32452,4,410278,304914
2025-02-25 09:55:40.410,128813,60600,32737,4,410455,305325
2025-02-25 09:55:40.594,129129,61006,33084,4,410622,305712
2025-02-25 09:55:40.601,129446,61409,33426,5,410717,306102
2025-02-25 09:55:40.776,129178,61199,33196,4,410417,305958
2025-02-25 09:55:40.801,129306,60771,32747,3,410376,305930
2025-02-25 09:55:40.937,129548,60880,32844,3,410497,306221
2025-02-25 09:55:41.125,129674,60998,33002,4,410516,306411
2025-02-25 09:55:41.127,129959,61122,33141,4,410658,306695
2025-02-25 09:55:41.282,130277,61423,33414,4,410851,307087
2025-02-25 09:55:41.297,130619,61805,33742,2,411099,307557
2025-02-25 09:55:41.478,130851,62070,33998,3,411372,307996
2025-02-25 09:55:41.497,130496,61338,33486,5,411038,307652
2025-02-25 09:55:41.687,130664,60853,33182,3,411000,307618
2025-02-25 09:55:41.697,130841,60876,33304,3,411020,307851
2025-02-25 09:55:41.875,131026,60829,33403,4,411038,307981
2025-02-25 09:55:41.900,131364,60918,33580,4,411268,308362
2025-02-25 09:55:42.026,131587,61231,33882,5,411434,308759
2025-02-25 09:55:42.295,131852,61590,34216,3,411667,309244
2025-02-25 09:55:42.297,131564,61213,34092,3,411485,309124
2025-02-25 09:55:42.300,131417,60156,33516,5,411163,308639
2025-02-25 09:55:42.446,131515,60006,33530,3,411315,308812
2025-02-25 09:55:42.492,131648,60032,33682,4,411707,309179
2025-02-25 09:55:42.635,131665,60039,33796,3,411759,309291
2025-02-25 09:55:42.822,131828,60317,34052,5,411802,309536
2025-02-25 09:55:42.826,132330,60703,34383,3,412372,310175
2025-02-25 09:55:43.016,132352,60770,34530,5,412742,310506
2025-02-25 09:55:43.019,131889,59629,33925,4,412503,309891
2025-02-25 09:55:43.182,132034,59359,33790,2,412643,309820
2025-02-25 09:55:43.195,132240,59493,33931,5,413067,310070
2025-02-25 09:55:43.435,132161,59499,33993,3,413206,310083
2025-02-25 09:55:43.437,132056,59720,34144,3,413028,309961
2025-02-25 09:55:43.591,132154,60081,34389,3,413131,310104
2025-02-25 09:55:43.595,131753,59901,34352,3,413097,309936
2025-02-25 09:55:43.777,131225,59009,33792,3,412772,309169
2025-02-25 09:55:43.787,131165,59042,33784,6,412713,308949
2025-02-25 09:55:43.930,131039,59174,33908,3,412714,308854
2025-02-25 09:55:44.122,130976,59220,33961,3,412731,308726
2025-02-25 09:55:44.125,131067,59454,34132,3,412890,308805
2025-02-25 09:55:44.276,131085,59697,34337,3,413057,308952
2025-02-25 09:55:44.284,130404,58837,33844,4,412781,308204
2025-02-25 09:55:44.463,130162,58316,33384,3,412686,307660
2025-02-25 09:55:44.483,130148,58491,33447,3,412758,307625
2025-02-25 09:55:44.618,130106,58547,33472,4,412851,307521
2025-02-25 09:55:44.812,130183,58712,33545,4,413103,307604
2025-02-25 09:55:44.815,130286,59069,33753,4,413399,307881
2025-02-25 09:55:44.970,129857,58730,33600,3,413451,307632
2025-02-25 09:55:44.987,129278,57720,32845,4,413219,306734
2025-02-25 09:55:45.217,129137,57672,32709,3,413220,306465
2025-02-25 09:55:45.219,129004,57867,32784,4,413214,306333
2025-02-25 09:55:45.370,128970,57986,32791,3,413332,306277
2025-02-25 09:55:45.379,129048,58336,32957,4,413698,306524
2025-02-25 09:55:45.561,128891,58479,33064,4,413841,306554
2025-02-25 09:55:45.579,128104,57444,32321,6,413485,305547
2025-02-25 09:55:45.789,127808,57181,31949,4,413152,304888
2025-02-25 09:55:45.791,127881,57524,32007,3,413166,304841
2025-02-25 09:55:45.976,127976,57673,32025,3,413591,305092
2025-02-25 09:55:45.979,128884,57875,32026,4,413264,305249
2025-02-25 09:55:46.129,130964,58778,32282,4,413122,306491
2025-02-25 09:55:46.174,131150,58666,32073,4,413237,306942
2025-02-25 09:55:46.315,131155,58192,31654,3,413367,306840
2025-02-25 09:55:46.468,131867,58565,31803,2,413715,307357
2025-02-25 09:55:46.475,132476,58961,32050,5,414278,308059
2025-02-25 09:55:46.658,132728,59284,32300,4,414579,308405
2025-02-25 09:55:46.678,132661,59665,32643,3,414597,308469
2025-02-25 09:55:46.867,132494,59732,32838,2,414563,308294
2025-02-25 09:55:46.878,131723,58586,32290,3,414085,307276
2025-02-25 09:55:47.056,131633,58387,32183,5,413984,306959
2025-02-25 09:55:47.070,131741,58703,32417,5,414087,307088
2025-02-25 09:55:47.203,131850,58870,32595,5,414293,307278
2025-02-25 09:55:47.473,132108,59247,32881,1,414516,307600
2025-02-25 09:55:47.475,132403,59770,33270,2,414816,308077
2025-02-25 09:55:47.477,132646,60221,33635,5,415067,308456
2025-02-25 09:55:47.622,132278,59892,33577,4,414867,308226
2025-02-25 09:55:47.808,131912,58980,33064,3,414530,307547
2025-02-25 09:55:47.811,132117,59121,33145,1,414678,307745
2025-02-25 09:55:47.964,132086,59334,33330,5,414669,307838
2025-02-25 09:55:47.968,132171,59503,33472,4,414783,307974
2025-02-25 09:55:48.157,132552,59886,33747,4,415227,308478
2025-02-25 09:55:48.165,132967,60315,34102,4,415775,309165
2025-02-25 09:55:48.309,133133,60574,34412,5,416168,309642
2025-02-25 09:55:48.499,132591,59640,33966,3,415782,309061
2025-02-25 09:55:48.501,132587,59114,33651,6,415794,308916
2025-02-25 09:55:48.712,132558,59256,33787,3,415816,309014
2025-02-25 09:55:48.715,132630,59283,33862,3,415930,309162
2025-02-25 09:55:48.757,132939,59475,34009,4,416087,309469
2025-02-25 09:55:48.903,133341,59881,34310,5,416359,310013
2025-02-25 09:55:49.134,133769,60319,34630,4,416460,310450
2025-02-25 09:55:49.136,133654,60335,34680,4,416336,310673
2025-02-25 09:55:49.161,133403,59335,34025,4,415923,310245
2025-02-25 09:55:49.327,133760,59247,33945,5,416160,310625
2025-02-25 09:55:49.361,133951,59409,34104,5,416431,311066
2025-02-25 09:55:49.477,134205,59408,34186,5,416713,311426
2025-02-25 09:55:49.685,134640,59626,34417,4,417013,311906
2025-02-25 09:55:49.687,135064,60013,34757,3,417368,312531
2025-02-25 09:55:49.837,135426,60352,35111,3,417774,313169
2025-02-25 09:55:49.857,134985,59588,34816,3,417528,312910
2025-02-25 09:55:50.034,135016,58840,34451,4,417335,312680
2025-02-25 09:55:50.056,135145,58978,34610,2,417334,312877
2025-02-25 09:55:50.186,135081,59061,34753,6,417492,313033
2025-02-25 09:55:50.433,135054,59108,34860,4,417440,312968
2025-02-25 09:55:50.435,134876,59582,35096,6,416474,312487
2025-02-25 09:55:50.457,134703,60460,35351,4,415637,312398
2025-02-25 09:55:50.584,134718,60614,35229,3,416234,313191
2025-02-25 09:55:50.780,134957,59853,34661,4,416688,313389
2025-02-25 09:55:50.783,135387,59981,34688,4,417166,313869
2025-02-25 09:55:50.992,135544,60279,34821,3,417461,314299
2025-02-25 09:55:50.995,135685,60488,34920,4,417785,314697
2025-02-25 09:55:51.177,135790,60856,35143,5,417860,314964
2025-02-25 09:55:51.180,135984,61272,35418,4,418017,315284
2025-02-25 09:55:51.328,135488,60879,35228,4,417598,314792
2025-02-25 09:55:51.352,135320,60062,34694,3,417218,314196
2025-02-25 09:55:51.518,135544,60194,34751,3,417298,314347
2025-02-25 09:55:51.556,135510,60319,34861,4,417489,314533
2025-02-25 09:55:51.669,135509,60333,34940,5,417567,314580
2025-02-25 09:55:51.875,135648,60493,35146,2,417697,314708
2025-02-25 09:55:51.877,135519,60650,35355,5,417656,314696
2025-02-25 09:55:52.074,134698,59656,34823,5,417199,313851
2025-02-25 09:55:52.076,134474,59103,34471,6,416958,313314
2025-02-25 09:55:52.261,134400,59184,34547,5,416743,313110
2025-02-25 09:55:52.263,134191,59127,34572,4,416736,312964
2025-02-25 09:55:52.421,134119,59201,34668,3,416605,312816
2025-02-25 09:55:52.448,134159,59413,34871,4,416560,312795
2025-02-25 09:55:52.612,133560,58832,34524,2,416161,312176
2025-02-25 09:55:52.640,133187,58067,33868,3,415773,311453
2025-02-25 09:55:52.768,133212,58111,33825,6,415756,311358
2025-02-25 09:55:53.015,133153,58131,33849,3,415921,311341
2025-02-25 09:55:53.018,133162,58147,33888,3,416156,311403
2025-02-25 09:55:53.044,133236,58296,34089,7,416510,311628
2025-02-25 09:55:53.172,132870,57990,33973,7,416352,311344
2025-02-25 09:55:53.362,132353,57044,33180,4,415882,310481
2025-02-25 09:55:53.365,132173,57017,33039,4,415771,310274
2025-02-25 09:55:53.516,131893,57180,33116,5,415628,310075
2025-02-25 09:55:53.535,131769,57267,33108,4,415462,309812
2025-02-25 09:55:53.789,131924,57594,33257,3,415420,309873
2025-02-25 09:55:53.792,131768,57845,33347,4,415228,309837
2025-02-25 09:55:53.945,131133,57102,32580,3,414717,309023
2025-02-25 09:55:53.949,131066,57022,32259,3,414510,308785
2025-02-25 09:55:54.143,131104,57342,32352,6,414421,308825
2025-02-25 09:55:54.146,131063,57546,32420,5,414238,308735
2025-02-25 09:55:54.364,131120,57893,32597,2,413954,308649
2025-02-25 09:55:54.366,131288,58319,32883,3,413900,308784
2025-02-25 09:55:54.560,130991,58104,32673,4,413779,308561
2025-02-25 09:55:54.563,130780,57550,32055,4,413665,308195
2025-02-25 09:55:54.707,130729,57740,32039,4,413347,308110
2025-02-25 09:55:54.731,130639,57995,32159,3,413034,308009
2025-02-25 09:55:54.899,130871,58209,32280,3,413100,308141
2025-02-25 09:55:54.935,131084,58619,32567,4,413116,308405
2025-02-25 09:55:55.051,131346,59044,32893,2,413222,308722
2025-02-25 09:55:55.255,131382,59277,33075,3,413229,308923
2025-02-25 09:55:55.258,130926,58643,32485,4,412909,308442
2025-02-25 09:55:55.407,131015,58493,32296,2,412798,308356
2025-02-25 09:55:55.427,131134,58713,32449,4,412809,308531
2025-02-25 09:55:55.660,131233,58835,32558,2,412848,308652
2025-02-25 09:55:55.662,131435,59086,32805,3,413045,308952
2025-02-25 09:55:55.817,131606,59416,33166,3,413203,309248
2025-02-25 09:55:55.831,131794,59722,33514,4,413396,309515
2025-02-25 09:55:56.085,132106,60011,33841,3,413781,309978
2025-02-25 09:55:56.088,132082,60108,34024,4,413805,310119
2025-02-25 09:55:56.131,131686,59223,33385,4,413442,309596
2025-02-25 09:55:56.234,131909,58876,33137,4,413416,309579
2025-02-25 09:55:56.426,132070,58903,33245,3,413516,309820
2025-02-25 09:55:56.428,132273,58890,33338,4,413506,309965
2025-02-25 09:55:56.584,132610,59079,33576,3,413707,310295
2025-02-25 09:55:56.623,132922,59420,33920,2,413901,310701
2025-02-25 09:55:56.781,133237,59775,34275,6,414084,311116
2025-02-25 09:55:56.826,133594,60116,34614,6,414312,311567
2025-02-25 09:55:56.966,133493,60144,34744,4,414212,311653
2025-02-25 09:55:57.151,133114,59144,34142,4,413748,311076
2025-02-25 09:55:57.154,133334,58881,33977,4,413684,311078
2025-02-25 09:55:57.366,133466,58968,34087,5,413784,311321
2025-02-25 09:55:57.369,133682,58993,34160,4,413864,311522
2025-02-25 09:55:57.557,134005,59273,34387,3,414032,311886
2025-02-25 09:55:57.560,134255,59738,34724,3,414187,312321
2025-02-25 09:55:57.779,134342,60193,35078,4,414345,312728
2025-02-25 09:55:57.781,134515,60588,35381,6,414357,312997
2025-02-25 09:55:57.824,134059,60208,35138,3,413974,312659
2025-02-25 09:55:57.966,133976,59622,34633,3,413680,312254
2025-02-25 09:55:58.015,134061,59770,34620,4,413652,312368
2025-02-25 09:55:58.122,134046,59977,34694,5,413681,312521
2025-02-25 09:55:58.315,134055,60150,34784,4,413783,312724
2025-02-25 09:55:58.318,134154,60541,35020,3,413719,312917
2025-02-25 09:55:58.466,134392,61019,35311,3,413725,313235
2025-02-25 09:55:58.505,134807,61511,35592,5,414015,313704
2025-02-25 09:55:58.662,134676,61610,35604,5,414290,313979
2025-02-25 09:55:58.705,134290,60981,35031,6,414164,313604
2025-02-25 09:55:58.879,134498,61008,34943,4,414193,313739
2025-02-25 09:55:58.906,134714,61236,35053,4,414462,314102
2025-02-25 09:55:59.075,135027,61364,35093,5,414820,314473
2025-02-25 09:55:59.097,135362,61644,35288,3,415243,314950
2025-02-25 09:55:59.226,135561,61984,35559,4,415516,315334
2025-02-25 09:55:59.424,135646,62272,35807,4,415603,315564
2025-02-25 09:55:59.427,135263,61743,35431,5,415367,315184
2025-02-25 09:55:59.660,135441,61346,35109,5,415324,315052
2025-02-25 09:55:59.663,135615,61503,35241,5,415405,315253
2025-02-25 09:55:59.702,135678,61544,35320,3,415501,315382
2025-02-25 09:55:59.847,135899,61595,35438,4,415721,315538
2025-02-25 09:56:00.003,136068,61829,35663,3,415850,315746
2025-02-25 09:56:00.006,136134,62078,35909,2,415914,315927
2025-02-25 09:56:00.198,135565,61386,35518,4,415550,315344
2025-02-25 09:56:00.201,135421,60629,35034,3,415377,314930
2025-02-25 09:56:00.347,135399,60576,35054,4,415355,314885
2025-02-25 09:56:00.542,135277,60489,35066,4,415357,314803
2025-02-25 09:56:00.545,135285,60469,35113,5,415391,314776
2025-02-25 09:56:00.771,135348,60651,35306,4,415439,314850
2025-02-25 09:56:00.774,135238,60792,35464,3,415361,314829
2025-02-25 09:56:00.797,134424,59726,34781,3,414672,313768
2025-02-25 09:56:00.982,133986,59248,34306,5,414067,313031
2025-02-25 09:56:00.989,134233,59280,34328,3,414773,313501
2025-02-25 09:56:01.132,134226,59095,34314,3,414937,313324
2025-02-25 09:56:01.354,134030,59233,34316,4,413329,311990
2025-02-25 09:56:01.358,134998,60331,34366,4,412477,312241
2025-02-25 09:56:01.394,135704,61183,34438,3,414562,314638
2025-02-25 09:56:01.522,134809,60328,33778,6,414611,314131
2025-02-25 09:56:01.707,134044,60054,33556,4,413882,313129
2025-02-25 09:56:01.709,133661,60085,33600,3,413595,312572
2025-02-25 09:56:01.857,133352,60022,33594,5,413455,312132
2025-02-25 09:56:01.884,133247,60201,33722,4,413474,311986
2025-02-25 09:56:02.060,133260,60495,33949,4,413693,312102
2025-02-25 09:56:02.084,132651,59954,33632,3,413528,311516
2025-02-25 09:56:02.218,132219,59208,33014,3,413496,310855
2025-02-25 09:56:02.485,132078,59252,32997,4,413695,310756
2025-02-25 09:56:02.487,131868,59289,33078,5,413773,310577
2025-02-25 09:56:02.490,131815,59351,33158,2,413885,310449
2025-02-25 09:56:02.648,132036,59601,33397,4,414122,310512
2025-02-25 09:56:02.680,132024,59850,33655,6,414306,310647
2025-02-25 09:56:02.866,131303,59083,33190,4,413884,309763
2025-02-25 09:56:02.881,131230,58706,32838,4,413751,309259
2025-02-25 09:56:03.169,131387,58948,33008,4,413893,309315
2025-02-25 09:56:03.173,131577,59077,33143,3,414014,309360
2025-02-25 09:56:03.184,131980,59316,33339,5,414368,309676
2025-02-25 09:56:03.413,132366,59746,33684,5,414595,309988
2025-02-25 09:56:03.416,132753,60225,34059,4,414735,310321
2025-02-25 09:56:03.587,132577,60113,34019,3,414531,310195
2025-02-25 09:56:03.590,132457,59538,33526,4,414350,309769
2025-02-25 09:56:03.813,132821,59806,33655,2,414613,310122
2025-02-25 09:56:03.817,133089,60107,33890,4,414892,310471
2025-02-25 09:56:04.139,133383,60364,34099,5,415188,310814
2025-02-25 09:56:04.152,133804,60831,34440,4,415472,311300
2025-02-25 09:56:04.161,134189,61369,34840,4,415746,311819
2025-02-25 09:56:04.175,134414,61772,35168,4,415929,312218
2025-02-25 09:56:04.519,134015,61177,34814,4,415748,311912
2025-02-25 09:56:04.522,134178,60906,34594,5,415896,311954
2025-02-25 09:56:04.524,134394,61205,34807,4,416030,312288
2025-02-25 09:56:04.560,134519,61386,34964,4,416124,312508
2025-02-25 09:56:04.758,134751,61665,35198,4,416378,312860
2025-02-25 09:56:04.763,135015,62070,35532,3,416549,313214
2025-02-25 09:56:04.944,135331,62510,35886,4,416814,313658
2025-02-25 09:56:04.963,135144,62463,35921,4,416781,313683
2025-02-25 09:56:05.098,134964,61706,35361,4,416560,313301
2025-02-25 09:56:05.290,135238,61763,35333,5,416737,313585
2025-02-25 09:56:05.293,135333,61996,35475,4,416860,313868
2025-02-25 09:56:05.450,135519,62127,35553,4,417015,314125
2025-02-25 09:56:05.453,135843,62468,35775,4,417263,314552
2025-02-25 09:56:05.639,136154,62928,36084,4,417479,315037
2025-02-25 09:56:05.647,136413,63226,36284,5,417724,315453
2025-02-25 09:56:05.864,136173,62555,35723,4,417699,315288
2025-02-25 09:56:05.866,136409,62377,35444,5,417800,315463
2025-02-25 09:56:06.049,136517,62638,35540,3,417865,315764
2025-02-25 09:56:06.052,136752,62742,35542,5,418102,316051
2025-02-25 09:56:06.201,137272,62967,35639,5,418705,316668
2025-02-25 09:56:06.454,137494,63431,35910,3,419129,317270
2025-02-25 09:56:06.456,137453,63828,36154,4,419145,317542
2025-02-25 09:56:06.458,136865,63223,35633,4,418570,316970
2025-02-25 09:56:06.611,136972,62938,35303,3,418239,316793
2025-02-25 09:56:06.642,137063,63203,35413,2,418147,317020
2025-02-25 09:56:06.811,137288,63279,35458,3,418616,317403
2025-02-25 09:56:06.843,137555,63417,35580,5,419073,317800
2025-02-25 09:56:06.966,137611,63827,35868,6,419204,318156
2025-02-25 09:56:07.155,137477,64039,36035,4,419203,318333
2025-02-25 09:56:07.157,137067,63242,35451,5,419023,317924
2025-02-25 09:56:07.325,137173,63007,35290,2,419032,317898
2025-02-25 09:56:07.338,137123,63081,35389,2,418959,317934
2025-02-25 09:56:07.569,137156,63002,35388,3,418996,317929
2025-02-25 09:56:07.572,137334,63054,35500,3,419196,318069
2025-02-25 09:56:07.717,137322,63296,35711,3,419153,318153
2025-02-25 09:56:07.738,136586,62797,35412,4,418634,317584
2025-02-25 09:56:07.915,136286,62096,34979,3,418033,316853
2025-02-25 09:56:07.938,136297,62077,35017,4,417592,316541
2025-02-25 09:56:08.136,136186,62041,35031,3,417539,316482
2025-02-25 09:56:08.142,136173,62076,35079,4,417538,316492
2025-02-25 09:56:08.309,136185,62269,35247,3,417526,316552
2025-02-25 09:56:08.334,135627,61844,34988,4,417186,316137
2025-02-25 09:56:08.469,135242,60939,34318,4,416686,315436
2025-02-25 09:56:08.657,135220,60838,34237,2,416534,315285
2025-02-25 09:56:08.660,135016,60784,34238,5,416393,315105
2025-02-25 09:56:08.810,134928,60706,34236,4,416346,314930
2025-02-25 09:56:08.834,134877,60820,34370,4,416321,314873
2025-02-25 09:56:09.003,134209,60455,34169,5,415972,314366
2025-02-25 09:56:09.038,133518,59332,33327,4,415442,313319
2025-02-25 09:56:09.165,133282,59070,33091,3,415134,312840
2025-02-25 09:56:09.409,133020,59017,33059,5,414919,312535
2025-02-25 09:56:09.412,132896,58928,33015,4,414863,312312
2025-02-25 09:56:09.430,132922,59061,33131,3,414875,312265
2025-02-25 09:56:09.573,132642,59013,33113,3,414802,312131
2025-02-25 09:56:09.766,131939,58018,32264,5,414401,311244
2025-02-25 09:56:09.769,131690,57786,31948,5,414173,310872
2025-02-25 09:56:09.925,131385,57886,32002,6,414060,310661
2025-02-25 09:56:09.933,131196,57860,31991,3,413927,310366
2025-02-25 09:56:10.124,131246,58053,32130,3,413961,310384
2025-02-25 09:56:10.127,131313,58378,32368,3,414040,310528
2025-02-25 09:56:10.280,130817,58098,32109,3,413791,310119
2025-02-25 09:56:10.325,130420,57505,31450,3,413412,309472
2025-02-25 09:56:10.478,130429,57641,31448,3,413353,309430
2025-02-25 09:56:10.526,130358,57825,31567,4,413339,309404
2025-02-25 09:56:10.648,130338,57992,31690,3,413270,309344
2025-02-25 09:56:10.835,130472,58304,31953,8,413228,309388
2025-02-25 09:56:10.838,130609,58644,32248,3,413113,309418
2025-02-25 09:56:11.050,130671,58924,32476,4,412946,309425
2025-02-25 09:56:11.053,130213,58422,31982,3,412480,308813
2025-02-25 09:56:11.285,130330,58263,31691,3,412364,308659
2025-02-25 09:56:11.288,130556,58592,31884,3,412457,308921
2025-02-25 09:56:11.309,130620,58799,32027,4,412509,309029
2025-02-25 09:56:11.470,130855,59084,32236,4,412604,309219
2025-02-25 09:56:11.513,131146,59499,32568,5,412585,309468
2025-02-25 09:56:11.768,131510,59948,32928,6,412675,309841
2025-02-25 09:56:11.770,131951,60388,33268,4,412783,310300
2025-02-25 09:56:11.812,132402,60853,33633,3,412988,310818
2025-02-25 09:56:11.919,132251,60769,33517,5,412809,310825
2025-02-25 09:56:12.108,132305,60413,33090,5,412702,310694
2025-02-25 09:56:12.111,132597,60669,33228,3,412853,311030
2025-02-25 09:56:12.270,132728,60887,33396,5,412951,311286
2025-02-25 09:56:12.304,132930,61088,33569,5,413132,311568
2025-02-25 09:56:12.469,133197,61431,33881,3,413329,311934
2025-02-25 09:56:12.509,133469,61821,34229,5,413465,312299
2025-02-25 09:56:12.624,133714,62186,34575,5,413632,312657
2025-02-25 09:56:12.894,133434,62130,34609,4,413546,312625
2025-02-25 09:56:12.897,133180,61390,34060,4,413420,312258
2025-02-25 09:56:12.899,133366,61304,34011,2,413474,312353
2025-02-25 09:56:13.058,133402,61432,34166,5,413541,312573
2025-02-25 09:56:13.093,133576,61441,34232,3,413652,312767
2025-02-25 09:56:13.364,133868,61652,34446,4,413873,313134
2025-02-25 09:56:13.367,134154,61962,34743,4,413987,313456
2025-02-25 09:56:13.392,134505,62305,35048,4,414155,313869
2025-02-25 09:56:13.530,134575,62526,35244,6,414129,314135
2025-02-25 09:56:13.742,134184,61832,34662,3,413653,313731
2025-02-25 09:56:13.745,134541,61589,34414,5,413653,313891
2025-02-25 09:56:13.916,134856,61736,34527,4,413860,314272
2025-02-25 09:56:13.919,135047,61831,34590,4,413954,314543
2025-02-25 09:56:14.132,135360,62087,34782,2,414198,314999
2025-02-25 09:56:14.135,135644,62464,35104,3,414538,315518
2025-02-25 09:56:14.371,135922,62860,35431,4,414738,315955
2025-02-25 09:56:14.373,135871,63075,35608,4,414765,316200
2025-02-25 09:56:14.396,135388,62338,35018,5,414238,315619
2025-02-25 09:56:14.583,135607,62163,34832,5,414282,315701
2025-02-25 09:56:14.587,135663,62334,34976,3,414423,315999
2025-02-25 09:56:14.757,135674,62384,35053,2,414540,316201
2025-02-25 09:56:14.779,136048,62580,35241,3,414930,316670
2025-02-25 09:56:14.969,136476,62907,35569,4,415796,317435
2025-02-25 09:56:14.980,136443,63227,35904,4,416062,317772
2025-02-25 09:56:15.197,135807,62602,35582,5,415448,317070
2025-02-25 09:56:15.200,135848,61903,35164,5,414995,316582
2025-02-25 09:56:15.410,136084,61954,35269,6,414907,316627
2025-02-25 09:56:15.412,136120,61926,35373,7,415014,316691
2025-02-25 09:56:15.577,136264,61891,35456,4,415140,316717
2025-02-25 09:56:15.584,136404,62108,35678,4,415240,316878
2025-02-25 09:56:15.767,136330,62362,35904,4,415067,316921
2025-02-25 09:56:15.775,135828,61593,35520,3,414604,316314
2025-02-25 09:56:15.925,135974,61009,35244,3,414611,316100
2025-02-25 09:56:16.125,136066,61066,35377,4,414759,316196
2025-02-25 09:56:16.128,135968,60982,35428,2,414799,316118
2025-02-25 09:56:16.332,136073,60955,35520,5,414968,316130
2025-02-25 09:56:16.335,136280,61129,35728,6,415371,316381
2025-02-25 09:56:16.379,135896,60908,35689,4,415272,316208
2025-02-25 09:56:16.525,135378,59684,34975,3,414857,315362
2025-02-25 09:56:16.739,135384,59477,34785,3,414767,315163
2025-02-25 09:56:16.741,135229,59561,34829,3,414710,315069
2025-02-25 09:56:16.772,135143,59495,34784,3,414573,314810
2025-02-25 09:56:16.923,135275,59656,34881,2,414716,314824
2025-02-25 09:56:16.972,135254,59839,35009,4,414833,314866
2025-02-25 09:56:17.081,134506,58772,34334,6,414456,314000
2025-02-25 09:56:17.269,134296,58216,33817,6,414355,313468
2025-02-25 09:56:17.275,134178,58339,33801,5,414421,313363
2025-02-25 09:56:17.444,133988,58352,33772,5,414457,313133
2025-02-25 09:56:17.475,134009,58520,33826,3,414638,313127
2025-02-25 09:56:17.670,134066,58858,34028,4,414890,313270
2025-02-25 09:56:17.673,133467,58406,33756,4,414699,312742
2025-02-25 09:56:17.885,133014,57539,33039,3,414547,311970
2025-02-25 09:56:17.888,132906,57611,32940,3,414730,311880
2025-02-25 09:56:18.082,132754,57827,32991,4,414820,311809
2025-02-25 09:56:18.086,132706,58021,33049,4,414953,311777
2025-02-25 09:56:18.246,132813,58412,33255,5,415225,311986
2025-02-25 09:56:18.271,132709,58635,33413,3,415314,312047
2025-02-25 09:56:18.440,132043,57820,32806,3,415055,311264
2025-02-25 09:56:18.470,131880,57713,32560,4,415110,311040
2025-02-25 09:56:18.598,131701,58025,32715,4,415496,311217
2025-02-25 09:56:18.792,131463,58078,32790,5,415660,311062
2025-02-25 09:56:18.794,131451,58349,32984,2,415863,311136
2025-02-25 09:56:18.952,131355,58750,33292,3,415915,311200
2025-02-25 09:56:18.966,131011,58674,33311,5,415565,310798
2025-02-25 09:56:19.150,130339,57884,32698,4,414962,309823
2025-02-25 09:56:19.166,130474,57890,32595,3,414939,309661
2025-02-25 09:56:19.303,130622,58186,32761,4,415087,309826
