Timestamp,PPG1,PPG2,PPG3,PPG4,PPG5
2025-05-29 11:10:02.914,102024,15993,13281,93616,100620
2025-05-29 11:10:02.957,102020,16007,13289,93621,100624
2025-05-29 11:10:02.959,102025,16015,13300,93598,100605
2025-05-29 11:10:02.960,102035,16026,13314,93609,100617
2025-05-29 11:10:02.961,102029,16031,13316,93608,100609
2025-05-29 11:10:02.963,102025,16036,13318,93607,100607
2025-05-29 11:10:02.965,102029,16043,13318,93615,100603
2025-05-29 11:10:02.966,102031,16047,13327,93611,100609
2025-05-29 11:10:02.968,102033,16051,13326,93594,100603
2025-05-29 11:10:02.971,102012,16046,13321,93607,100598
2025-05-29 11:10:02.973,102022,16048,13325,93601,100609
2025-05-29 11:10:02.974,102022,16044,13321,93594,100586
2025-05-29 11:10:02.976,102017,16036,13300,93588,100591
2025-05-29 11:10:02.977,101997,16026,13300,93593,100579
2025-05-29 11:10:02.979,102005,16020,13288,93588,100589
2025-05-29 11:10:02.980,101981,16012,13280,93586,100565
2025-05-29 11:10:02.982,102003,15998,13271,93589,100585
2025-05-29 11:10:02.983,101984,15990,13261,93584,100575
2025-05-29 11:10:02.984,101996,15992,13245,93589,100559
2025-05-29 11:10:02.985,101983,15981,13243,93588,100556
2025-05-29 11:10:02.986,101990,15974,13238,93597,100562
2025-05-29 11:10:02.987,101988,15974,13236,93613,100555
2025-05-29 11:10:02.988,101988,15974,13236,93613,100555
2025-05-29 11:10:02.989,101988,15974,13236,93613,100555
2025-05-29 11:10:02.990,102011,15969,13227,93615,100583
2025-05-29 11:10:02.991,102010,15973,13220,93638,100589
2025-05-29 11:10:02.993,102000,15960,13219,93642,100607
2025-05-29 11:10:02.994,102011,15959,13217,93649,100605
2025-05-29 11:10:02.995,101999,15965,13220,93654,100608
2025-05-29 11:10:02.996,102008,15955,13211,93664,100606
2025-05-29 11:10:02.997,102003,15956,13209,93651,100613
2025-05-29 11:10:02.999,102011,15958,13204,93653,100594
2025-05-29 11:10:03.000,102012,15954,13209,93658,100609
2025-05-29 11:10:03.001,101998,15948,13206,93667,100615
2025-05-29 11:10:03.002,102012,15948,13204,93672,100615
2025-05-29 11:10:03.003,102010,15953,13205,93683,100612
2025-05-29 11:10:03.005,102009,15948,13200,93671,100612
2025-05-29 11:10:03.006,102008,15954,13201,93682,100608
2025-05-29 11:10:03.437,102004,15956,13200,93669,100619
2025-05-29 11:10:03.439,102004,15948,13210,93662,100607
2025-05-29 11:10:03.441,102006,15955,13202,93665,100614
2025-05-29 11:10:03.443,101991,15947,13206,93646,100590
2025-05-29 11:10:03.446,101985,15948,13206,93652,100593
2025-05-29 11:10:03.448,101985,15948,13206,93652,100593
2025-05-29 11:10:03.451,101970,15950,13205,93642,100582
2025-05-29 11:10:03.454,101982,15955,13203,93633,100598
2025-05-29 11:10:03.455,101970,15945,13201,93635,100580
2025-05-29 11:10:03.457,101969,15952,13207,93626,100574
2025-05-29 11:10:03.458,101969,15947,13201,93612,100568
2025-05-29 11:10:03.459,101963,15954,13201,93596,100576
2025-05-29 11:10:03.461,101973,15944,13204,93611,100570
2025-05-29 11:10:03.463,101953,15945,13207,93592,100579
2025-05-29 11:10:03.465,101951,15945,13211,93597,100569
2025-05-29 11:10:03.467,101963,15955,13206,93597,100553
2025-05-29 11:10:03.468,101952,15961,13210,93583,100542
2025-05-29 11:10:03.469,101965,15951,13214,93586,100549
2025-05-29 11:10:03.470,101953,15960,13210,93583,100561
2025-05-29 11:10:03.471,101953,15964,13218,93589,100565
2025-05-29 11:10:03.471,101936,15966,13225,93585,100533
2025-05-29 11:10:03.472,101949,15966,13219,93565,100548
2025-05-29 11:10:03.474,101958,15977,13226,93570,100547
2025-05-29 11:10:03.475,101955,15977,13232,93564,100543
2025-05-29 11:10:03.476,101962,15985,13234,93563,100556
2025-05-29 11:10:03.476,101953,15991,13244,93554,100542
2025-05-29 11:10:03.477,101951,15998,13245,93561,100550
2025-05-29 11:10:03.478,101963,15996,13252,93569,100553
2025-05-29 11:10:03.478,101966,16010,13254,93582,100562
2025-05-29 11:10:03.479,101969,16014,13263,93587,100554
2025-05-29 11:10:03.480,101973,16016,13263,93602,100572
2025-05-29 11:10:03.481,101976,16027,13269,93617,100573
2025-05-29 11:10:03.496,101977,16026,13276,93603,100597
2025-05-29 11:10:03.497,101967,16036,13281,93592,100584
2025-05-29 11:10:03.498,101977,16029,13288,93595,100580
2025-05-29 11:10:03.499,101970,16039,13286,93597,100577
2025-05-29 11:10:03.500,101980,16050,13299,93610,100574
2025-05-29 11:10:03.501,101969,16051,13298,93589,100568
2025-05-29 11:10:03.503,101973,16061,13306,93595,100570
2025-05-29 11:10:03.505,101981,16070,13310,93571,100578
2025-05-29 11:10:03.506,101978,16071,13313,93582,100574
2025-05-29 11:10:03.507,101986,16083,13327,93592,100568
2025-05-29 11:10:03.508,101986,16089,13326,93575,100581
2025-05-29 11:10:03.509,101989,16097,13329,93584,100596
2025-05-29 11:10:03.510,101999,16098,13332,93590,100575
2025-05-29 11:10:03.511,101980,16107,13340,93580,100583
2025-05-29 11:10:03.513,101987,16109,13346,93587,100588
2025-05-29 11:10:03.515,101986,16124,13347,93590,100603
2025-05-29 11:10:03.516,101985,16124,13347,93579,100579
2025-05-29 11:10:03.517,101984,16134,13350,93566,100582
2025-05-29 11:10:03.518,101986,16132,13370,93566,100571
2025-05-29 11:10:03.519,101983,16144,13367,93552,100575
2025-05-29 11:10:03.520,101977,16146,13369,93554,100563
2025-05-29 11:10:03.521,101970,16164,13380,93543,100557
2025-05-29 11:10:03.522,101971,16147,13378,93532,100561
2025-05-29 11:10:03.522,101966,16162,13386,93531,100547
2025-05-29 11:10:03.523,101966,16160,13389,93531,100543
2025-05-29 11:10:03.525,101954,16159,13386,93501,100546
2025-05-29 11:10:03.525,101950,16158,13381,93505,100519
2025-05-29 11:10:03.526,101935,16152,13375,93507,100514
2025-05-29 11:10:03.527,101915,16144,13368,93493,100509
2025-05-29 11:10:03.527,101920,16143,13352,93502,100504
2025-05-29 11:10:03.528,101914,16123,13342,93478,100494
2025-05-29 11:10:03.528,101920,16119,13334,93489,100498
2025-05-29 11:10:03.529,101927,16112,13334,93487,100497
2025-05-29 11:10:03.529,101912,16110,13321,93513,100502
2025-05-29 11:10:03.530,101918,16101,13314,93513,100500
2025-05-29 11:10:03.531,101921,16096,13315,93531,100508
2025-05-29 11:10:03.531,101930,16095,13312,93540,100515
2025-05-29 11:10:03.532,101920,16088,13303,93549,100517
2025-05-29 11:10:03.532,101936,16087,13307,93549,100532
2025-05-29 11:10:03.533,101948,16085,13304,93564,100528
2025-05-29 11:10:03.534,101950,16083,13296,93557,100549
2025-05-29 11:10:03.535,101949,16083,13294,93580,100543
2025-05-29 11:10:03.535,101953,16084,13291,93587,100541
2025-05-29 11:10:03.536,101945,16080,13292,93600,100566
2025-05-29 11:10:03.536,101950,16081,13288,93604,100577
2025-05-29 11:10:03.537,101975,16081,13291,93603,100568
2025-05-29 11:10:03.537,101962,16087,13288,93620,100564
2025-05-29 11:10:03.538,101976,16081,13295,93624,100568
2025-05-29 11:10:03.539,101955,16087,13283,93626,100582
2025-05-29 11:10:03.539,101964,16081,13292,93629,100582
2025-05-29 11:10:03.540,101953,16084,13298,93619,100585
2025-05-29 11:10:03.541,101968,16085,13290,93623,100566
2025-05-29 11:10:03.544,101956,16081,13298,93612,100576
2025-05-29 11:10:03.545,101951,16088,13299,93608,100574
2025-05-29 11:10:03.561,101952,16085,13296,93606,100581
2025-05-29 11:10:03.562,101946,16091,13303,93623,100576
2025-05-29 11:10:03.564,101955,16092,13299,93597,100560
2025-05-29 11:10:03.565,101957,16093,13296,93609,100566
2025-05-29 11:10:03.566,101952,16084,13296,93615,100560
2025-05-29 11:10:03.568,101940,16088,13297,93607,100550
2025-05-29 11:10:03.578,101946,16084,13294,93597,100548
2025-05-29 11:10:03.586,101930,16086,13297,93603,100524
2025-05-29 11:10:03.598,101934,16072,13297,93578,100534
2025-05-29 11:10:03.606,101936,16082,13296,93593,100539
2025-05-29 11:10:03.625,101929,16093,13299,93584,100554
2025-05-29 11:10:03.626,101927,16083,13293,93573,100542
2025-05-29 11:10:03.638,101916,16096,13299,93579,100543
2025-05-29 11:10:03.646,101923,16087,13303,93594,100543
2025-05-29 11:10:03.659,101920,16097,13295,93575,100537
2025-05-29 11:10:03.670,101931,16100,13311,93573,100538
2025-05-29 11:10:03.689,101939,16095,13301,93572,100531
2025-05-29 11:10:03.691,101928,16096,13312,93561,100537
2025-05-29 11:10:03.698,101914,16112,13322,93566,100528
2025-05-29 11:10:03.710,101942,16116,13327,93559,100534
2025-05-29 11:10:03.718,101936,16119,13325,93579,100546
2025-05-29 11:10:03.730,101931,16127,13333,93581,100542
2025-05-29 11:10:03.738,101952,16123,13341,93583,100561
2025-05-29 11:10:03.755,101958,16136,13337,93591,100558
2025-05-29 11:10:03.758,101955,16129,13343,93600,100561
2025-05-29 11:10:03.770,101958,16149,13349,93600,100572
2025-05-29 11:10:03.779,101965,16141,13350,93581,100570
2025-05-29 11:10:03.789,101960,16162,13354,93617,100584
2025-05-29 11:10:03.798,101979,16166,13353,93601,100583
2025-05-29 11:10:03.820,101969,16170,13367,93620,100588
2025-05-29 11:10:03.821,101974,16176,13374,93616,100595
2025-05-29 11:10:03.830,101981,16178,13381,93619,100597
2025-05-29 11:10:03.838,101987,16188,13380,93629,100599
2025-05-29 11:10:03.850,101993,16183,13382,93624,100611
2025-05-29 11:10:03.858,101975,16204,13388,93621,100600
2025-05-29 11:10:03.883,101983,16201,13393,93622,100629
2025-05-29 11:10:03.885,101999,16214,13396,93633,100616
2025-05-29 11:10:03.890,101983,16214,13395,93622,100616
2025-05-29 11:10:03.899,101990,16225,13407,93616,100609
2025-05-29 11:10:03.910,101984,16224,13409,93609,100617
2025-05-29 11:10:03.918,101975,16233,13413,93614,100614
2025-05-29 11:10:03.929,102002,16237,13416,93601,100615
2025-05-29 11:10:03.949,101981,16254,13433,93611,100615
2025-05-29 11:10:03.951,101990,16248,13431,93607,100608
2025-05-29 11:10:03.958,101995,16247,13431,93603,100608
2025-05-29 11:10:03.970,101985,16256,13438,93603,100601
2025-05-29 11:10:03.978,101976,16259,13432,93607,100602
2025-05-29 11:10:03.990,101976,16253,13428,93603,100581
2025-05-29 11:10:03.997,101968,16245,13430,93582,100590
2025-05-29 11:10:04.023,101956,16231,13419,93563,100578
2025-05-29 11:10:04.025,101944,16230,13415,93554,100554
2025-05-29 11:10:04.030,101945,16219,13402,93560,100565
2025-05-29 11:10:04.038,101936,16209,13383,93560,100539
2025-05-29 11:10:04.050,101922,16199,13374,93570,100542
2025-05-29 11:10:04.063,101934,16185,13372,93550,100534
2025-05-29 11:10:04.070,101933,16182,13359,93547,100519
2025-05-29 11:10:04.124,101908,16161,13348,93547,100505
2025-05-29 11:10:04.125,101908,16155,13342,93525,100530
2025-05-29 11:10:04.126,101904,16149,13333,93537,100520
2025-05-29 11:10:04.128,101911,16142,13333,93542,100516
2025-05-29 11:10:04.129,101911,16142,13333,93542,100516
2025-05-29 11:10:04.130,101915,16139,13322,93555,100505
2025-05-29 11:10:04.131,101929,16132,13324,93568,100532
2025-05-29 11:10:04.143,101927,16122,13323,93566,100534
2025-05-29 11:10:04.150,101937,16122,13304,93587,100539
2025-05-29 11:10:04.162,101934,16117,13324,93590,100551
2025-05-29 11:10:04.170,101929,16117,13308,93609,100549
2025-05-29 11:10:04.688,101948,16117,13304,93604,100555
2025-05-29 11:10:04.690,101954,16115,13303,93602,100557
2025-05-29 11:10:04.691,101941,16107,13304,93617,100566
2025-05-29 11:10:04.691,101953,16107,13298,93634,100587
2025-05-29 11:10:04.692,101970,16108,13308,93636,100575
2025-05-29 11:10:04.693,101958,16110,13299,93648,100588
2025-05-29 11:10:04.693,101951,16102,13304,93640,100595
2025-05-29 11:10:04.694,101958,16096,13302,93650,100587
2025-05-29 11:10:04.695,101950,16100,13295,93648,100579
2025-05-29 11:10:04.696,101960,16098,13306,93649,100592
2025-05-29 11:10:04.696,101958,16098,13304,93652,100584
2025-05-29 11:10:04.697,101949,16096,13298,93641,100583
2025-05-29 11:10:04.698,101956,16098,13302,93645,100582
2025-05-29 11:10:04.698,101950,16097,13286,93648,100577
2025-05-29 11:10:04.699,101938,16096,13303,93626,100564
2025-05-29 11:10:04.700,101928,16095,13298,93622,100574
2025-05-29 11:10:04.701,101932,16095,13290,93607,100550
2025-05-29 11:10:04.701,101919,16087,13289,93604,100529
2025-05-29 11:10:04.702,101922,16097,13290,93600,100534
2025-05-29 11:10:04.703,101917,16085,13291,93607,100539
2025-05-29 11:10:04.704,101914,16078,13282,93589,100546
2025-05-29 11:10:04.704,101913,16089,13291,93583,100542
2025-05-29 11:10:04.705,101910,16088,13292,93594,100524
2025-05-29 11:10:04.706,101908,16083,13298,93594,100526
2025-05-29 11:10:04.707,101897,16092,13293,93575,100533
2025-05-29 11:10:04.707,101909,16083,13293,93556,100527
2025-05-29 11:10:04.708,101888,16085,13293,93579,100516
2025-05-29 11:10:04.709,101906,16092,13293,93563,100527
2025-05-29 11:10:04.709,101891,16096,13286,93551,100517
2025-05-29 11:10:04.710,101899,16097,13306,93539,100505
2025-05-29 11:10:04.711,101900,16100,13309,93537,100515
2025-05-29 11:10:04.711,101899,16108,13307,93538,100501
2025-05-29 11:10:04.712,101919,16113,13314,93539,100493
2025-05-29 11:10:04.713,101915,16113,13313,93545,100524
2025-05-29 11:10:04.713,101921,16104,13322,93544,100517
2025-05-29 11:10:04.714,101917,16129,13322,93555,100530
2025-05-29 11:10:04.715,101956,16125,13333,93580,100549
2025-05-29 11:10:04.715,101948,16130,13342,93595,100557
2025-05-29 11:10:04.716,101968,16158,13350,93618,100572
2025-05-29 11:10:04.717,101972,16159,13345,93646,100567
2025-05-29 11:10:04.717,101981,16163,13366,93651,100613
2025-05-29 11:10:04.718,102000,16173,13372,93650,100618
2025-05-29 11:10:04.719,102009,16171,13373,93677,100643
2025-05-29 11:10:04.719,102047,16186,13382,93706,100661
2025-05-29 11:10:04.720,102046,16189,13389,93727,100680
2025-05-29 11:10:04.721,102039,16191,13399,93748,100707
2025-05-29 11:10:04.721,102062,16210,13396,93753,100712
2025-05-29 11:10:04.722,102062,16216,13409,93769,100723
2025-05-29 11:10:04.723,102084,16215,13415,93777,100735
2025-05-29 11:10:04.723,102079,16216,13411,93801,100741
2025-05-29 11:10:04.724,102083,16226,13420,93801,100745
2025-05-29 11:10:04.725,102105,16233,13416,93810,100743
2025-05-29 11:10:04.725,102057,16238,13420,93792,100753
2025-05-29 11:10:04.726,102091,16247,13420,93795,100752
2025-05-29 11:10:04.726,102077,16235,13430,93801,100739
2025-05-29 11:10:04.734,102079,16254,13439,93803,100744
2025-05-29 11:10:04.862,102072,16261,13439,93799,100757
2025-05-29 11:10:04.864,102096,16279,13456,93808,100764
2025-05-29 11:10:04.864,102104,16285,13457,93799,100777
2025-05-29 11:10:04.865,102089,16287,13462,93824,100788
2025-05-29 11:10:04.866,102094,16286,13457,93808,100795
2025-05-29 11:10:04.867,102084,16290,13460,93813,100780
2025-05-29 11:10:04.868,102077,16280,13452,93799,100781
2025-05-29 11:10:04.868,102062,16270,13454,93800,100756
2025-05-29 11:10:04.869,102070,16267,13447,93783,100752
2025-05-29 11:10:04.870,102047,16248,13434,93773,100735
2025-05-29 11:10:04.871,102039,16261,13416,93760,100735
2025-05-29 11:10:04.872,102038,16223,13403,93755,100677
2025-05-29 11:10:04.873,102020,16214,13385,93730,100677
2025-05-29 11:10:04.874,101995,16205,13380,93726,100680
2025-05-29 11:10:04.885,101990,16188,13373,93711,100682
2025-05-29 11:10:04.894,101995,16178,13356,93699,100655
2025-05-29 11:10:04.906,101996,16167,13347,93700,100671
2025-05-29 11:10:04.923,101989,16162,13347,93714,100666
2025-05-29 11:10:04.926,101975,16144,13333,93713,100682
2025-05-29 11:10:04.934,101980,16138,13328,93710,100664
2025-05-29 11:10:04.946,101996,16132,13308,93703,100663
2025-05-29 11:10:04.953,101981,16123,13323,93718,100668
2025-05-29 11:10:04.966,101986,16113,13308,93716,100648
2025-05-29 11:10:04.986,101982,16099,13301,93708,100660
2025-05-29 11:10:04.988,101975,16112,13291,93702,100645
2025-05-29 11:10:04.995,101956,16091,13280,93713,100645
2025-05-29 11:10:05.005,101967,16087,13273,93696,100633
2025-05-29 11:10:05.013,101942,16083,13276,93700,100648
2025-05-29 11:10:05.027,101949,16073,13272,93695,100631
2025-05-29 11:10:05.034,101935,16064,13267,93679,100642
2025-05-29 11:10:05.051,101928,16057,13258,93676,100628
2025-05-29 11:10:05.054,101923,16063,13266,93661,100623
2025-05-29 11:10:05.066,101914,16062,13254,93645,100611
2025-05-29 11:10:05.074,101888,16042,13240,93628,100575
2025-05-29 11:10:05.086,101887,16039,13253,93595,100567
2025-05-29 11:10:05.093,101859,16039,13244,93567,100543
2025-05-29 11:10:05.117,101844,16008,13245,93525,100525
2025-05-29 11:10:05.118,101840,16018,13225,93491,100506
2025-05-29 11:10:05.127,101835,16010,13234,93476,100482
2025-05-29 11:10:05.133,101820,16021,13220,93461,100472
2025-05-29 11:10:05.146,101799,15994,13222,93433,100463
2025-05-29 11:10:05.154,101796,16006,13219,93402,100426
2025-05-29 11:10:05.166,101786,16002,13234,93364,100432
2025-05-29 11:10:05.182,101763,16002,13227,93354,100421
2025-05-29 11:10:05.185,101746,15991,13234,93328,100406
2025-05-29 11:10:05.194,101749,15976,13225,93310,100401
2025-05-29 11:10:05.206,101737,15997,13226,93291,100382
2025-05-29 11:10:05.214,101734,15995,13223,93249,100391
2025-05-29 11:10:05.226,101729,15995,13226,93240,100359
2025-05-29 11:10:05.246,101721,15996,13232,93220,100366
2025-05-29 11:10:05.247,101734,15991,13229,93202,100366
2025-05-29 11:10:05.255,101736,15999,13230,93206,100364
2025-05-29 11:10:05.266,101736,16001,13233,93212,100368
2025-05-29 11:10:05.274,101719,15996,13237,93211,100373
2025-05-29 11:10:05.286,101730,15998,13239,93212,100366
2025-05-29 11:10:05.294,101733,15999,13244,93221,100374
2025-05-29 11:10:05.310,101743,16005,13239,93222,100412
2025-05-29 11:10:05.318,101746,16019,13248,93238,100403
2025-05-29 11:10:05.325,101752,16023,13265,93242,100408
2025-05-29 11:10:05.337,101770,16027,13259,93230,100422
2025-05-29 11:10:05.346,101780,16028,13267,93258,100440
2025-05-29 11:10:05.357,101769,16038,13274,93264,100446
2025-05-29 11:10:05.374,101771,16040,13279,93263,100461
2025-05-29 11:10:05.377,101788,16048,13281,93280,100476
2025-05-29 11:10:05.386,101796,16052,13288,93283,100489
2025-05-29 11:10:05.397,101793,16058,13288,93295,100496
2025-05-29 11:10:05.406,101789,16061,13305,93300,100516
2025-05-29 11:10:05.418,101803,16067,13312,93290,100525
2025-05-29 11:10:05.437,101801,16073,13313,93301,100537
2025-05-29 11:10:05.439,101787,16081,13321,93293,100543
2025-05-29 11:10:05.446,101778,16083,13308,93273,100535
2025-05-29 11:10:05.457,101754,16089,13328,93262,100529
2025-05-29 11:10:05.466,101742,16100,13336,93249,100511
2025-05-29 11:10:05.477,101724,16103,13337,93221,100527
2025-05-29 11:10:05.486,101720,16105,13347,93181,100522
2025-05-29 11:10:05.503,101703,16114,13345,93184,100513
2025-05-29 11:10:05.506,101707,16110,13350,93171,100524
2025-05-29 11:10:05.518,101703,16129,13350,93178,100514
2025-05-29 11:10:05.522,101703,16129,13350,93178,100514
2025-05-29 11:10:05.525,101720,16139,13371,93205,100526
2025-05-29 11:10:05.538,101716,16146,13363,93208,100534
2025-05-29 11:10:05.547,101728,16143,13379,93258,100548
2025-05-29 11:10:05.567,101721,16158,13366,93272,100566
2025-05-29 11:10:05.568,101731,16174,13381,93291,100582
2025-05-29 11:10:05.577,101727,16182,13399,93328,100592
2025-05-29 11:10:05.586,101755,16193,13398,93377,100621
2025-05-29 11:10:05.598,101780,16196,13404,93428,100644
2025-05-29 11:10:05.605,101804,16199,13396,93511,100662
2025-05-29 11:10:05.631,101838,16209,13405,93595,100707
2025-05-29 11:10:05.633,101853,16208,13402,93695,100752
2025-05-29 11:10:05.637,101873,16228,13414,93809,100793
2025-05-29 11:10:05.646,101896,16225,13418,93900,100845
2025-05-29 11:10:05.658,101916,16224,13415,94001,100868
2025-05-29 11:10:05.666,101935,16237,13408,94090,100915
2025-05-29 11:10:05.678,101934,16216,13402,94179,100926
2025-05-29 11:10:05.694,101939,16216,13397,94266,100976
2025-05-29 11:10:05.698,101949,16200,13383,94335,101001
2025-05-29 11:10:05.710,101932,16188,13379,94385,101005
2025-05-29 11:10:05.718,101915,16182,13358,94428,101019
2025-05-29 11:10:05.730,101902,16161,13332,94471,101031
2025-05-29 11:10:05.738,101871,16142,13327,94486,101009
2025-05-29 11:10:05.759,101853,16131,13319,94499,101000
2025-05-29 11:10:05.760,101826,16121,13293,94509,101002
2025-05-29 11:10:05.769,101816,16100,13293,94534,100987
2025-05-29 11:10:05.778,101798,16083,13270,94534,100976
2025-05-29 11:10:05.790,101765,16080,13260,94565,100958
2025-05-29 11:10:05.798,101743,16063,13245,94544,100933
2025-05-29 11:10:05.823,101707,16059,13238,94564,100900
2025-05-29 11:10:05.825,101695,16042,13228,94557,100878
2025-05-29 11:10:05.830,101669,16028,13222,94542,100846
2025-05-29 11:10:05.837,101666,16011,13209,94529,100825
2025-05-29 11:10:05.850,101628,16004,13199,94522,100806
2025-05-29 11:10:05.858,101609,15996,13188,94508,100768
2025-05-29 11:10:05.869,101598,15981,13178,94511,100749
2025-05-29 11:10:05.890,101570,15969,13169,94507,100725
2025-05-29 11:10:05.891,101568,15960,13169,94514,100712
2025-05-29 11:10:05.899,101569,15956,13162,94506,100709
2025-05-29 11:10:05.910,101554,15949,13157,94537,100697
2025-05-29 11:10:05.918,101549,15941,13163,94541,100713
2025-05-29 11:10:05.930,101560,15943,13150,94541,100697
2025-05-29 11:10:05.938,101561,15941,13152,94573,100700
2025-05-29 11:10:05.954,101560,15940,13135,94588,100691
2025-05-29 11:10:05.958,101556,15937,13154,94601,100682
2025-05-29 11:10:05.970,101561,15928,13152,94627,100705
2025-05-29 11:10:05.977,101568,15934,13147,94660,100723
2025-05-29 11:10:05.990,101575,15920,13151,94680,100750
2025-05-29 11:10:05.998,101574,15928,13144,94727,100742
2025-05-29 11:10:06.018,101584,15921,13139,94767,100758
2025-05-29 11:10:06.019,101618,15915,13150,94828,100798
2025-05-29 11:10:06.030,101623,15903,13134,94890,100831
2025-05-29 11:10:06.038,101643,15905,13126,94929,100861
2025-05-29 11:10:06.050,101652,15898,13147,94966,100865
2025-05-29 11:10:06.058,101633,15910,13134,94992,100903
2025-05-29 11:10:06.081,101654,15913,13127,95008,100928
2025-05-29 11:10:06.082,101653,15903,13147,95042,100928
2025-05-29 11:10:06.090,101622,15914,13127,95040,100946
2025-05-29 11:10:06.097,101622,15892,13127,95027,100938
2025-05-29 11:10:06.110,101596,15900,13124,95019,100937
2025-05-29 11:10:06.121,101563,15883,13132,95000,100914
2025-05-29 11:10:06.130,101538,15900,13125,94989,100912
2025-05-29 11:10:06.145,101521,15897,13119,94957,100887
2025-05-29 11:10:06.149,101483,15882,13120,94945,100859
2025-05-29 11:10:06.162,101483,15885,13120,94917,100847
2025-05-29 11:10:06.169,101443,15873,13118,94899,100814
2025-05-29 11:10:06.182,101440,15881,13121,94878,100803
2025-05-29 11:10:06.190,101428,15882,13121,94878,100802
2025-05-29 11:10:06.209,101419,15883,13114,94839,100775
2025-05-29 11:10:06.211,101391,15873,13112,94806,100749
2025-05-29 11:10:06.222,101371,15867,13116,94789,100719
2025-05-29 11:10:06.230,101364,15868,13116,94739,100698
2025-05-29 11:10:06.242,101332,15877,13120,94733,100671
2025-05-29 11:10:06.249,101324,15876,13120,94702,100655
2025-05-29 11:10:06.275,101311,15872,13122,94664,100645
2025-05-29 11:10:06.276,101283,15861,13124,94621,100611
2025-05-29 11:10:06.282,101271,15875,13122,94570,100597
2025-05-29 11:10:06.289,101256,15868,13130,94546,100564
2025-05-29 11:10:06.301,101255,15870,13137,94509,100550
2025-05-29 11:10:06.310,101244,15870,13135,94467,100527
2025-05-29 11:10:06.321,101231,15869,13139,94430,100507
2025-05-29 11:10:06.341,101217,15855,13142,94401,100480
2025-05-29 11:10:06.343,101207,15858,13145,94367,100459
2025-05-29 11:10:06.349,101198,15861,13136,94329,100422
2025-05-29 11:10:06.361,101194,15867,13148,94288,100408
2025-05-29 11:10:06.370,101174,15870,13148,94246,100387
2025-05-29 11:10:06.381,101163,15871,13159,94185,100375
2025-05-29 11:10:06.389,101162,15867,13149,94124,100341
2025-05-29 11:10:06.405,101131,15870,13159,94062,100316
2025-05-29 11:10:06.410,101123,15875,13162,94011,100269
2025-05-29 11:10:06.421,101092,15858,13155,93934,100230
2025-05-29 11:10:06.430,101078,15863,13147,93884,100185
2025-05-29 11:10:06.442,101057,15843,13139,93845,100170
2025-05-29 11:10:06.449,101035,15828,13122,93764,100141
2025-05-29 11:10:06.469,101041,15804,13109,93709,100130
2025-05-29 11:10:06.470,101031,15784,13098,93681,100140
2025-05-29 11:10:06.481,101040,15760,13084,93650,100152
2025-05-29 11:10:06.494,101028,15743,13065,93627,100157
2025-05-29 11:10:06.501,101039,15722,13051,93581,100153
2025-05-29 11:10:06.514,100985,15701,13037,93554,100146
2025-05-29 11:10:06.533,101013,15688,13018,93499,100150
2025-05-29 11:10:06.534,100985,15657,13000,93467,100142
2025-05-29 11:10:06.542,100960,15654,12979,93418,100109
2025-05-29 11:10:06.554,100944,15625,12973,93371,100096
2025-05-29 11:10:06.562,100915,15609,12957,93304,100063
2025-05-29 11:10:06.573,100918,15599,12938,93265,100059
2025-05-29 11:10:06.581,100920,15584,12935,93219,100047
2025-05-29 11:10:06.598,100895,15568,12924,93201,100019
2025-05-29 11:10:06.602,100909,15562,12918,93187,100012
2025-05-29 11:10:06.614,100893,15553,12910,93176,100029
2025-05-29 11:10:06.622,100895,15539,12910,93157,99998
2025-05-29 11:10:06.634,100895,15538,12904,93158,100001
2025-05-29 11:10:06.641,100901,15527,12893,93148,99990
2025-05-29 11:10:06.663,100878,15513,12891,93152,99994
2025-05-29 11:10:06.664,100877,15506,12885,93135,99977
2025-05-29 11:10:06.673,100861,15493,12890,93106,99960
2025-05-29 11:10:06.682,100851,15491,12866,93092,99965
2025-05-29 11:10:06.693,100844,15488,12872,93056,99944
2025-05-29 11:10:06.702,100850,15491,12867,93015,99916
2025-05-29 11:10:06.726,100823,15487,12852,92995,99882
2025-05-29 11:10:06.727,100811,15469,12867,92954,99868
2025-05-29 11:10:06.733,100803,15478,12859,92925,99851
2025-05-29 11:10:06.741,100819,15459,12862,92889,99829
2025-05-29 11:10:06.754,100803,15462,12859,92898,99824
2025-05-29 11:10:06.762,100827,15455,12849,92908,99813
2025-05-29 11:10:06.773,100837,15448,12850,92914,99804
2025-05-29 11:10:06.791,100841,15441,12846,92928,99829
2025-05-29 11:10:06.793,100849,15433,12841,92956,99828
2025-05-29 11:10:06.802,100862,15429,12850,92964,99843
2025-05-29 11:10:06.814,100870,15428,12853,92987,99867
2025-05-29 11:10:06.822,100870,15428,12859,92997,99867
2025-05-29 11:10:06.834,100869,15422,12846,93018,99858
2025-05-29 11:10:06.858,100873,15423,12860,93014,99888
2025-05-29 11:10:06.859,100863,15433,12854,93019,99896
2025-05-29 11:10:06.866,100854,15431,12858,93009,99898
2025-05-29 11:10:06.874,100860,15442,12859,93049,99927
2025-05-29 11:10:06.885,100861,15448,12870,93063,99940
2025-05-29 11:10:06.893,100843,15456,12866,93086,99965
2025-05-29 11:10:06.905,100866,15478,12871,93114,99993
2025-05-29 11:10:06.923,100851,15474,12877,93168,100026
2025-05-29 11:10:06.925,100859,15491,12874,93211,100042
2025-05-29 11:10:06.934,100868,15488,12893,93274,100078
2025-05-29 11:10:06.945,100869,15498,12894,93319,100094
2025-05-29 11:10:06.954,100851,15488,12893,93354,100118
2025-05-29 11:10:06.966,100846,15495,12897,93357,100110
2025-05-29 11:10:06.988,100826,15486,12889,93362,100107
2025-05-29 11:10:06.989,100800,15481,12894,93343,100091
2025-05-29 11:10:06.994,100763,15469,12889,93306,100075
2025-05-29 11:10:07.005,100734,15465,12892,93249,100044
2025-05-29 11:10:07.014,100723,15473,12893,93221,100013
2025-05-29 11:10:07.026,100687,15473,12890,93166,99977
2025-05-29 11:10:07.034,100671,15461,12892,93114,99951
2025-05-29 11:10:07.052,100652,15463,12892,93078,99928
2025-05-29 11:10:07.054,100661,15475,12907,93043,99926
2025-05-29 11:10:07.066,100663,15477,12895,93045,99901
2025-05-29 11:10:07.074,100660,15477,12912,93049,99907
2025-05-29 11:10:07.085,100660,15486,12915,93047,99919
2025-05-29 11:10:07.093,100663,15492,12908,93057,99944
2025-05-29 11:10:07.118,100674,15496,12930,93068,99948
2025-05-29 11:10:07.119,100680,15495,12927,93095,99979
2025-05-29 11:10:07.126,100695,15520,12942,93141,99998
2025-05-29 11:10:07.130,100695,15520,12942,93141,99998
2025-05-29 11:10:07.133,100758,15528,12946,93239,100065
2025-05-29 11:10:07.145,100775,15533,12944,93302,100104
2025-05-29 11:10:07.153,100812,15550,12953,93377,100144
2025-05-29 11:10:07.166,100838,15546,12959,93444,100172
2025-05-29 11:10:07.185,100866,15531,12957,93527,100202
2025-05-29 11:10:07.187,100889,15537,12964,93594,100232
2025-05-29 11:10:07.198,100895,15529,12953,93613,100231
2025-05-29 11:10:07.205,100901,15510,12948,93665,100244
2025-05-29 11:10:07.218,100912,15500,12945,93666,100246
2025-05-29 11:10:07.225,100894,15484,12924,93694,100255
2025-05-29 11:10:07.249,100868,15478,12931,93692,100256
2025-05-29 11:10:07.251,100877,15450,12898,93691,100231
2025-05-29 11:10:07.258,100872,15430,12890,93695,100239
2025-05-29 11:10:07.265,100862,15422,12873,93703,100231
2025-05-29 11:10:07.277,100870,15398,12868,93701,100233
2025-05-29 11:10:07.285,100856,15396,12848,93731,100243
2025-05-29 11:10:07.298,100850,15372,12842,93736,100246
2025-05-29 11:10:07.317,100856,15375,12837,93774,100251
2025-05-29 11:10:07.319,100849,15360,12819,93770,100245
2025-05-29 11:10:07.325,100847,15348,12822,93796,100245
2025-05-29 11:10:07.338,100833,15347,12811,93782,100245
2025-05-29 11:10:07.345,100806,15323,12802,93803,100246
2025-05-29 11:10:07.358,100802,15319,12805,93793,100238
2025-05-29 11:10:07.366,100779,15303,12788,93787,100213
2025-05-29 11:10:07.383,100765,15299,12777,93752,100190
2025-05-29 11:10:07.385,100736,15291,12777,93734,100175
2025-05-29 11:10:07.397,100716,15274,12772,93717,100158
2025-05-29 11:10:07.406,100715,15266,12757,93691,100138
2025-05-29 11:10:07.417,100716,15263,12756,93683,100140
2025-05-29 11:10:07.425,100696,15262,12749,93665,100116
2025-05-29 11:10:07.447,100708,15250,12764,93664,100108
2025-05-29 11:10:07.448,100708,15242,12746,93666,100118
2025-05-29 11:10:07.458,100736,15236,12741,93709,100120
2025-05-29 11:10:07.465,100762,15245,12747,93764,100147
2025-05-29 11:10:07.478,100792,15245,12749,93802,100178
2025-05-29 11:10:07.486,100808,15240,12743,93859,100204
2025-05-29 11:10:07.516,100825,15232,12732,93907,100215
2025-05-29 11:10:07.517,100824,15221,12737,93940,100228
2025-05-29 11:10:07.519,100817,15224,12733,93951,100256
2025-05-29 11:10:07.530,100800,15220,12726,93959,100262
2025-05-29 11:10:07.537,100780,15213,12720,93967,100244
2025-05-29 11:10:07.545,100756,15200,12711,93963,100241
2025-05-29 11:10:07.558,100742,15206,12718,93927,100224
2025-05-29 11:10:07.582,100696,15197,12703,93906,100211
2025-05-29 11:10:07.584,100669,15179,12699,93879,100180
2025-05-29 11:10:07.590,100648,15181,12688,93853,100158
2025-05-29 11:10:07.598,100624,15179,12699,93827,100140
2025-05-29 11:10:07.610,100596,15173,12691,93797,100132
2025-05-29 11:10:07.617,100573,15166,12698,93757,100085
2025-05-29 11:10:07.629,100548,15155,12683,93733,100061
2025-05-29 11:10:07.651,100529,15153,12684,93690,100030
2025-05-29 11:10:07.653,100522,15159,12685,93674,100011
2025-05-29 11:10:07.657,100485,15151,12693,93615,99983
2025-05-29 11:10:07.670,100470,15143,12675,93585,99946
2025-05-29 11:10:07.678,100440,15150,12682,93544,99916
2025-05-29 11:10:07.689,100418,15144,12690,93502,99901
2025-05-29 11:10:07.697,100406,15147,12690,93477,99873
2025-05-29 11:10:07.716,100393,15150,12689,93434,99842
2025-05-29 11:10:07.718,100384,15146,12689,93394,99841
2025-05-29 11:10:07.729,100381,15141,12698,93362,99817
2025-05-29 11:10:07.737,100376,15136,12697,93337,99787
2025-05-29 11:10:07.750,100378,15139,12708,93316,99770
2025-05-29 11:10:07.758,100395,15142,12696,93309,99777
2025-05-29 11:10:07.781,100404,15147,12704,93300,99771
2025-05-29 11:10:07.783,100414,15151,12706,93266,99782
2025-05-29 11:10:07.789,100425,15145,12720,93270,99773
2025-05-29 11:10:07.798,100422,15145,12713,93236,99764
2025-05-29 11:10:07.810,100429,15150,12723,93233,99755
2025-05-29 11:10:07.818,100446,15154,12725,93209,99765
2025-05-29 11:10:07.830,100445,15149,12728,93206,99769
2025-05-29 11:10:07.848,100462,15163,12735,93205,99780
2025-05-29 11:10:07.849,100468,15162,12740,93191,99781
2025-05-29 11:10:07.857,100476,15160,12739,93184,99765
2025-05-29 11:10:07.870,100488,15164,12735,93142,99755
2025-05-29 11:10:07.878,100492,15174,12749,93157,99755
2025-05-29 11:10:07.890,100503,15165,12756,93128,99745
2025-05-29 11:10:07.916,100527,15167,12760,93125,99747
2025-05-29 11:10:07.917,100531,15170,12761,93137,99761
2025-05-29 11:10:07.921,100557,15172,12772,93130,99748
2025-05-29 11:10:07.930,100573,15181,12774,93142,99760
2025-05-29 11:10:07.942,100577,15186,12772,93132,99750
2025-05-29 11:10:07.950,100588,15174,12787,93134,99749
2025-05-29 11:10:07.962,100593,15190,12788,93120,99748
2025-05-29 11:10:07.981,100612,15195,12784,93114,99750
2025-05-29 11:10:07.982,100610,15192,12792,93076,99730
2025-05-29 11:10:07.990,100618,15190,12785,93046,99741
2025-05-29 11:10:08.002,100611,15184,12788,93028,99715
2025-05-29 11:10:08.010,100611,15188,12788,92998,99705
2025-05-29 11:10:08.021,100621,15171,12779,92987,99710
2025-05-29 11:10:08.045,100627,15160,12766,92997,99693
2025-05-29 11:10:08.046,100640,15152,12762,92999,99709
2025-05-29 11:10:08.049,100648,15146,12753,92999,99701
2025-05-29 11:10:08.062,100666,15130,12751,92995,99721
2025-05-29 11:10:08.070,100672,15126,12735,93012,99715
2025-05-29 11:10:08.082,100695,15111,12721,93023,99730
2025-05-29 11:10:08.089,100695,15094,12710,93040,99723
2025-05-29 11:10:08.110,100701,15080,12717,93047,99737
2025-05-29 11:10:08.112,100709,15068,12694,93056,99739
2025-05-29 11:10:08.122,100719,15053,12694,93055,99729
2025-05-29 11:10:08.129,100744,15054,12689,93063,99757
2025-05-29 11:10:08.142,100743,15045,12688,93070,99742
2025-05-29 11:10:08.150,100752,15035,12680,93100,99759
2025-05-29 11:10:08.179,100754,15026,12678,93091,99761
2025-05-29 11:10:08.181,100761,15018,12671,93109,99777
2025-05-29 11:10:08.182,100764,15016,12669,93111,99784
2025-05-29 11:10:08.193,100779,15011,12672,93137,99778
2025-05-29 11:10:08.202,100778,14995,12657,93142,99801
2025-05-29 11:10:08.214,100779,15001,12657,93130,99803
2025-05-29 11:10:08.221,100785,14988,12642,93130,99810
2025-05-29 11:10:08.245,100784,14991,12652,93125,99781
2025-05-29 11:10:08.247,100782,14984,12644,93149,99803
2025-05-29 11:10:08.254,100780,14980,12642,93144,99822
2025-05-29 11:10:08.262,100787,14982,12645,93128,99814
2025-05-29 11:10:08.274,100771,14978,12641,93139,99825
2025-05-29 11:10:08.281,100773,14970,12643,93128,99820
2025-05-29 11:10:08.293,100775,14971,12641,93127,99815
2025-05-29 11:10:08.310,100770,14963,12636,93102,99805
2025-05-29 11:10:08.313,100754,14965,12631,93087,99797
2025-05-29 11:10:08.322,100767,14957,12641,93092,99765
2025-05-29 11:10:08.334,100743,14953,12631,93079,99784
2025-05-29 11:10:08.337,100743,14953,12631,93079,99784
2025-05-29 11:10:08.341,100733,14952,12630,93044,99773
2025-05-29 11:10:08.353,100746,14942,12627,93043,99762
2025-05-29 11:10:08.375,100735,14945,12622,93017,99751
2025-05-29 11:10:08.376,100720,14945,12629,93005,99737
2025-05-29 11:10:08.381,100727,14940,12624,93011,99726
2025-05-29 11:10:08.393,100718,14937,12634,92979,99731
2025-05-29 11:10:08.402,100709,14943,12626,92946,99726
2025-05-29 11:10:08.413,100711,14932,12625,92954,99709
2025-05-29 11:10:08.422,100704,14941,12627,92929,99714
2025-05-29 11:10:08.441,100692,14939,12630,92937,99696
2025-05-29 11:10:08.445,100721,14931,12627,92912,99722
2025-05-29 11:10:08.454,100711,14941,12638,92887,99705
2025-05-29 11:10:08.466,100702,14930,12636,92894,99719
2025-05-29 11:10:08.473,100703,14941,12632,92875,99704
2025-05-29 11:10:08.486,100709,14937,12635,92867,99703
2025-05-29 11:10:08.505,100710,14940,12644,92849,99703
2025-05-29 11:10:08.506,100714,14945,12640,92840,99693
2025-05-29 11:10:08.513,100702,14943,12641,92816,99685
2025-05-29 11:10:08.525,100706,14950,12658,92807,99688
2025-05-29 11:10:08.534,100707,14952,12656,92777,99672
2025-05-29 11:10:08.546,100705,14953,12667,92767,99671
2025-05-29 11:10:08.553,100687,14957,12664,92746,99668
2025-05-29 11:10:08.573,100702,14953,12660,92722,99676
2025-05-29 11:10:08.574,100702,14970,12668,92715,99669
2025-05-29 11:10:08.585,100700,14966,12672,92697,99668
2025-05-29 11:10:08.594,100714,14969,12678,92691,99670
2025-05-29 11:10:08.606,100712,14980,12684,92670,99653
2025-05-29 11:10:08.614,100712,14985,12688,92671,99690
2025-05-29 11:10:08.644,100716,14986,12691,92665,99657
2025-05-29 11:10:08.645,100724,15007,12705,92672,99679
2025-05-29 11:10:08.647,100733,15000,12708,92688,99677
2025-05-29 11:10:08.654,100745,15019,12718,92693,99682
2025-05-29 11:10:08.666,100761,15012,12731,92702,99687
2025-05-29 11:10:08.674,100770,15020,12722,92715,99720
2025-05-29 11:10:08.687,100783,15025,12732,92734,99716
2025-05-29 11:10:08.716,100794,15029,12726,92754,99718
2025-05-29 11:10:08.718,100786,15028,12733,92780,99734
2025-05-29 11:10:08.719,100805,15047,12746,92807,99741
2025-05-29 11:10:08.726,100825,15047,12746,92838,99758
2025-05-29 11:10:08.738,100842,15062,12754,92882,99761
2025-05-29 11:10:08.746,100860,15076,12760,92884,99805
2025-05-29 11:10:08.758,100887,15069,12770,92937,99808
2025-05-29 11:10:08.784,100883,15077,12764,92971,99823
2025-05-29 11:10:08.786,100922,15078,12772,92996,99839
2025-05-29 11:10:08.788,100935,15093,12788,93030,99850
2025-05-29 11:10:08.797,100940,15094,12796,93054,99870
2025-05-29 11:10:08.807,100959,15111,12795,93087,99864
2025-05-29 11:10:08.818,100966,15107,12802,93071,99878
2025-05-29 11:10:08.825,100974,15112,12807,93086,99873
2025-05-29 11:10:08.848,100982,15125,12811,93092,99886
2025-05-29 11:10:08.850,100995,15130,12824,93091,99900
2025-05-29 11:10:08.858,100991,15134,12821,93094,99907
2025-05-29 11:10:08.866,100994,15137,12826,93119,99922
2025-05-29 11:10:08.877,101004,15140,12833,93109,99901
2025-05-29 11:10:08.886,101014,15142,12833,93114,99925
2025-05-29 11:10:08.897,101026,15139,12823,93148,99926
2025-05-29 11:10:08.915,101018,15125,12820,93149,99922
2025-05-29 11:10:08.917,101016,15121,12801,93165,99936
2025-05-29 11:10:08.925,101024,15116,12805,93172,99927
2025-05-29 11:10:08.938,101015,15102,12794,93190,99945
2025-05-29 11:10:08.945,101023,15079,12781,93190,99948
2025-05-29 11:10:08.958,101033,15078,12769,93201,99938
2025-05-29 11:10:08.980,101025,15077,12770,93203,99953
2025-05-29 11:10:08.981,101034,15061,12764,93233,99954
2025-05-29 11:10:08.985,101027,15053,12750,93230,99968
2025-05-29 11:10:08.997,101023,15036,12741,93242,99960
2025-05-29 11:10:09.010,101026,15039,12736,93237,99956
2025-05-29 11:10:09.017,101020,15026,12739,93237,99959
2025-05-29 11:10:09.047,101027,15025,12727,93245,99956
2025-05-29 11:10:09.049,101028,15017,12724,93238,99961
2025-05-29 11:10:09.050,101025,15013,12720,93237,99969
2025-05-29 11:10:09.057,101026,14997,12712,93243,99958
2025-05-29 11:10:09.070,101026,15009,12716,93247,99975
2025-05-29 11:10:09.078,101029,15000,12705,93249,99962
2025-05-29 11:10:09.089,101023,14995,12711,93252,99952
2025-05-29 11:10:09.114,101027,14987,12706,93256,99966
2025-05-29 11:10:09.115,101020,14988,12706,93264,99970
2025-05-29 11:10:09.117,101018,14974,12699,93265,99948
2025-05-29 11:10:09.130,101023,14979,12696,93269,99944
2025-05-29 11:10:09.137,101025,14975,12686,93279,99945
2025-05-29 11:10:09.150,101033,14975,12702,93279,99953
2025-05-29 11:10:09.157,101036,14981,12694,93280,99953
2025-05-29 11:10:09.179,101029,14972,12697,93284,99952
2025-05-29 11:10:09.180,101036,14973,12698,93292,99962
2025-05-29 11:10:09.189,101040,14982,12697,93299,99983
2025-05-29 11:10:09.198,101043,14978,12703,93301,99967
2025-05-29 11:10:09.209,101047,14971,12703,93327,99980
2025-05-29 11:10:09.217,101058,14982,12693,93328,99985
2025-05-29 11:10:09.243,101046,14977,12698,93312,99972
2025-05-29 11:10:09.245,101045,14972,12702,93327,99990
2025-05-29 11:10:09.250,101043,14962,12690,93323,99982
2025-05-29 11:10:09.258,101057,14985,12700,93336,99981
2025-05-29 11:10:09.270,101059,14975,12703,93332,99992
2025-05-29 11:10:09.277,101070,14979,12702,93350,99992
2025-05-29 11:10:09.290,101069,14968,12700,93347,99990
2025-05-29 11:10:09.309,101065,14975,12697,93353,99997
2025-05-29 11:10:09.310,101087,14969,12708,93363,100004
2025-05-29 11:10:09.322,101085,14980,12701,93374,100006
2025-05-29 11:10:09.329,101078,14982,12711,93375,100019
2025-05-29 11:10:09.341,101097,14997,12708,93399,100013
2025-05-29 11:10:09.349,101093,14992,12708,93393,100024
2025-05-29 11:10:09.374,101087,14996,12723,93413,100034
2025-05-29 11:10:09.375,101109,15007,12729,93407,100031
2025-05-29 11:10:09.381,101112,15011,12733,93430,100059
2025-05-29 11:10:09.390,101110,15018,12733,93435,100056
2025-05-29 11:10:09.401,101121,15023,12733,93451,100075
2025-05-29 11:10:09.410,101128,15034,12746,93469,100080
2025-05-29 11:10:09.421,101139,15031,12751,93478,100097
2025-05-29 11:10:09.440,101133,15036,12754,93494,100102
2025-05-29 11:10:09.442,101139,15031,12749,93502,100118
2025-05-29 11:10:09.449,101143,15040,12762,93495,100098
2025-05-29 11:10:09.461,101151,15048,12759,93507,100094
2025-05-29 11:10:09.470,101150,15047,12775,93499,100104
2025-05-29 11:10:09.481,101137,15060,12774,93516,100111
2025-05-29 11:10:09.489,101144,15048,12774,93505,100101
2025-05-29 11:10:09.507,101142,15069,12776,93493,100102
2025-05-29 11:10:09.509,101144,15063,12791,93491,100129
2025-05-29 11:10:09.522,101142,15076,12786,93493,100116
2025-05-29 11:10:09.530,101136,15072,12803,93468,100106
2025-05-29 11:10:09.542,101136,15097,12793,93480,100109
2025-05-29 11:10:09.545,101136,15097,12793,93480,100109
2025-05-29 11:10:09.549,101132,15102,12805,93465,100125
2025-05-29 11:10:09.577,101137,15097,12811,93461,100103
2025-05-29 11:10:09.579,101130,15097,12816,93460,100114
2025-05-29 11:10:09.582,101130,15097,12816,93460,100114
2025-05-29 11:10:09.590,101131,15092,12816,93480,100108
2025-05-29 11:10:09.602,101130,15110,12827,93451,100111
2025-05-29 11:10:09.610,101120,15119,12826,93465,100113
2025-05-29 11:10:09.622,101131,15113,12838,93460,100123
2025-05-29 11:10:09.648,101139,15136,12846,93465,100112
2025-05-29 11:10:09.650,101130,15134,12839,93459,100122
2025-05-29 11:10:09.651,101147,15149,12857,93461,100133
2025-05-29 11:10:09.662,101132,15155,12864,93485,100136
2025-05-29 11:10:09.673,101134,15171,12870,93474,100144
2025-05-29 11:10:09.682,101116,15160,12868,93457,100156
2025-05-29 11:10:09.693,101140,15177,12885,93466,100138
2025-05-29 11:10:09.716,101139,15180,12879,93460,100158
2025-05-29 11:10:09.718,101132,15170,12872,93461,100151
2025-05-29 11:10:09.722,101121,15163,12870,93460,100162
2025-05-29 11:10:09.733,101122,15152,12861,93453,100149
2025-05-29 11:10:09.741,101116,15141,12858,93447,100127
2025-05-29 11:10:09.745,101116,15141,12858,93447,100127
2025-05-29 11:10:09.754,101104,15121,12840,93433,100110
2025-05-29 11:10:09.761,101096,15112,12839,93403,100101
2025-05-29 11:10:09.783,101092,15102,12831,93419,100102
2025-05-29 11:10:09.784,101077,15094,12825,93397,100082
2025-05-29 11:10:09.794,101085,15096,12817,93378,100088
2025-05-29 11:10:09.802,101093,15085,12820,93391,100071
2025-05-29 11:10:09.814,101083,15075,12807,93392,100086
2025-05-29 11:10:09.821,101091,15074,12795,93407,100100
2025-05-29 11:10:09.849,101088,15063,12802,93427,100096
2025-05-29 11:10:09.850,101103,15065,12801,93424,100103
2025-05-29 11:10:09.854,101106,15066,12807,93454,100107
2025-05-29 11:10:09.861,101115,15063,12802,93466,100130
2025-05-29 11:10:09.874,101115,15064,12806,93464,100132
2025-05-29 11:10:09.881,101109,15056,12797,93477,100155
2025-05-29 11:10:09.894,101121,15058,12788,93480,100141
2025-05-29 11:10:09.917,101131,15061,12800,93488,100165
2025-05-29 11:10:09.918,101115,15060,12798,93488,100166
2025-05-29 11:10:09.922,101121,15058,12805,93506,100166
2025-05-29 11:10:09.933,101118,15073,12786,93508,100162
2025-05-29 11:10:09.942,101125,15067,12806,93513,100192
2025-05-29 11:10:09.954,101117,15064,12806,93519,100187
2025-05-29 11:10:09.961,101105,15068,12816,93532,100202
2025-05-29 11:10:09.982,101113,15072,12809,93545,100200
2025-05-29 11:10:09.984,101123,15082,12818,93544,100226
2025-05-29 11:10:09.993,101106,15077,12816,93556,100218
2025-05-29 11:10:10.002,101113,15078,12825,93564,100225
2025-05-29 11:10:10.013,101121,15083,12812,93569,100228
2025-05-29 11:10:10.021,101114,15084,12824,93561,100234
2025-05-29 11:10:10.048,101085,15073,12832,93542,100213
2025-05-29 11:10:10.050,101092,15078,12818,93549,100213
2025-05-29 11:10:10.054,101085,15081,12819,93528,100222
2025-05-29 11:10:10.061,101072,15077,12823,93531,100204
2025-05-29 11:10:10.073,101078,15079,12835,93522,100203
2025-05-29 11:10:10.086,101076,15085,12832,93550,100190
2025-05-29 11:10:10.093,101071,15085,12830,93541,100202
2025-05-29 11:10:10.120,101068,15086,12838,93535,100204
2025-05-29 11:10:10.121,101071,15096,12840,93541,100201
2025-05-29 11:10:10.126,101085,15103,12845,93548,100203
2025-05-29 11:10:10.134,101079,15096,12848,93556,100210
2025-05-29 11:10:10.145,101069,15102,12853,93559,100206
2025-05-29 11:10:10.154,101057,15100,12853,93558,100201
2025-05-29 11:10:10.165,101058,15103,12860,93547,100219
2025-05-29 11:10:10.186,101044,15105,12857,93540,100194
2025-05-29 11:10:10.187,101051,15116,12864,93524,100202
2025-05-29 11:10:10.195,101042,15113,12867,93507,100181
2025-05-29 11:10:10.206,101039,15129,12872,93512,100195
2025-05-29 11:10:10.214,101028,15123,12879,93518,100188
2025-05-29 11:10:10.226,101030,15128,12888,93524,100181
2025-05-29 11:10:10.233,101034,15133,12893,93517,100182
2025-05-29 11:10:10.250,101036,15146,12898,93534,100192
2025-05-29 11:10:10.253,101042,15149,12906,93520,100197
2025-05-29 11:10:10.265,101043,15151,12912,93522,100204
2025-05-29 11:10:10.273,101029,15170,12921,93540,100214
2025-05-29 11:10:10.285,101047,15176,12928,93551,100213
2025-05-29 11:10:10.293,101039,15186,12928,93565,100213
2025-05-29 11:10:10.316,101043,15188,12936,93561,100226
2025-05-29 11:10:10.317,101040,15195,12943,93568,100221
2025-05-29 11:10:10.326,101036,15199,12952,93563,100226
2025-05-29 11:10:10.334,101035,15199,12951,93556,100217
2025-05-29 11:10:10.346,101017,15211,12958,93552,100212
2025-05-29 11:10:10.353,101010,15206,12963,93532,100210
2025-05-29 11:10:10.383,100992,15210,12967,93535,100187
2025-05-29 11:10:10.385,100996,15217,12968,93526,100183
2025-05-29 11:10:10.386,100990,15224,12968,93518,100173
2025-05-29 11:10:10.394,100997,15232,12978,93486,100149
2025-05-29 11:10:10.406,100997,15233,12982,93491,100153
2025-05-29 11:10:10.414,100995,15237,12991,93496,100148
2025-05-29 11:10:10.425,101025,15252,12996,93478,100136
2025-05-29 11:10:10.448,100996,15239,12997,93484,100133
2025-05-29 11:10:10.449,101008,15249,12998,93474,100134
2025-05-29 11:10:10.453,101013,15250,13002,93497,100135
2025-05-29 11:10:10.465,101029,15255,12989,93502,100145
2025-05-29 11:10:10.478,101012,15243,12999,93519,100148
2025-05-29 11:10:10.485,101039,15230,12995,93521,100158
2025-05-29 11:10:10.513,101033,15224,12979,93536,100166
2025-05-29 11:10:10.515,101050,15218,12979,93538,100149
2025-05-29 11:10:10.517,101044,15206,12976,93541,100145
2025-05-29 11:10:10.525,101049,15202,12961,93550,100168
2025-05-29 11:10:10.538,101051,15180,12964,93568,100174
2025-05-29 11:10:10.544,101054,15177,12945,93568,100195
2025-05-29 11:10:10.558,101064,15159,12938,93595,100188
2025-05-29 11:10:10.579,101071,15163,12929,93617,100197
2025-05-29 11:10:10.580,101062,15150,12924,93624,100209
2025-05-29 11:10:10.586,101067,15157,12920,93629,100199
2025-05-29 11:10:10.598,101078,15153,12922,93640,100217
2025-05-29 11:10:10.605,101067,15130,12921,93624,100199
2025-05-29 11:10:10.618,101055,15128,12898,93646,100211
2025-05-29 11:10:10.626,101058,15123,12907,93626,100207
2025-05-29 11:10:10.648,101067,15125,12903,93644,100215
2025-05-29 11:10:10.649,101072,15118,12914,93635,100225
2025-05-29 11:10:10.658,101089,15113,12907,93664,100219
2025-05-29 11:10:10.666,101078,15126,12904,93675,100223
2025-05-29 11:10:10.678,101074,15117,12893,93689,100228
2025-05-29 11:10:10.685,101104,15112,12898,93716,100231
2025-05-29 11:10:10.715,101093,15109,12899,93725,100248
2025-05-29 11:10:10.716,101100,15095,12892,93727,100265
2025-05-29 11:10:10.718,101125,15103,12896,93737,100259
2025-05-29 11:10:10.725,101101,15102,12909,93743,100242
2025-05-29 11:10:10.738,101098,15107,12905,93735,100264
2025-05-29 11:10:10.746,101097,15104,12902,93745,100258
2025-05-29 11:10:10.756,101091,15083,12901,93742,100251
2025-05-29 11:10:10.779,101092,15102,12904,93726,100254
2025-05-29 11:10:10.780,101092,15100,12904,93729,100239
2025-05-29 11:10:10.786,101083,15111,12902,93717,100243
2025-05-29 11:10:10.797,101086,15094,12898,93705,100252
2025-05-29 11:10:10.806,101094,15109,12899,93723,100232
2025-05-29 11:10:10.817,101091,15098,12900,93709,100244
2025-05-29 11:10:10.825,101082,15097,12907,93689,100225
2025-05-29 11:10:10.843,101088,15103,12895,93703,100233
2025-05-29 11:10:10.845,101085,15092,12908,93685,100226
2025-05-29 11:10:10.858,101072,15105,12905,93698,100214
2025-05-29 11:10:10.866,101099,15104,12906,93689,100225
2025-05-29 11:10:10.877,101086,15117,12906,93692,100216
2025-05-29 11:10:10.885,101089,15117,12907,93686,100237
2025-05-29 11:10:10.914,101091,15125,12904,93708,100223
2025-05-29 11:10:10.915,101088,15113,12908,93708,100227
2025-05-29 11:10:10.918,101089,15114,12917,93682,100236
2025-05-29 11:10:10.930,101101,15119,12921,93687,100222
2025-05-29 11:10:10.937,101096,15136,12923,93701,100235
2025-05-29 11:10:10.950,101113,15137,12933,93689,100221
2025-05-29 11:10:10.959,101102,15126,12940,93698,100254
2025-05-29 11:10:10.987,101104,15133,12938,93685,100250
2025-05-29 11:10:10.989,101114,15134,12944,93696,100259
2025-05-29 11:10:10.991,101118,15148,12951,93685,100253
2025-05-29 11:10:10.997,101127,15161,12949,93694,100269
2025-05-29 11:10:11.010,101117,15156,12951,93709,100274
2025-05-29 11:10:11.017,101118,15151,12965,93711,100269
2025-05-29 11:10:11.030,101138,15160,12955,93695,100268
2025-05-29 11:10:11.058,101136,15167,12978,93707,100276
2025-05-29 11:10:11.061,101141,15175,12983,93712,100270
2025-05-29 11:10:11.063,101134,15183,12987,93718,100288
2025-05-29 11:10:11.070,101167,15192,12982,93704,100268
2025-05-29 11:10:11.077,101152,15200,13005,93704,100286
2025-05-29 11:10:11.090,101150,15202,12996,93707,100268
2025-05-29 11:10:11.098,101141,15212,12995,93718,100288
2025-05-29 11:10:11.128,101136,15220,13003,93710,100278
2025-05-29 11:10:11.130,101145,15216,13003,93703,100288
2025-05-29 11:10:11.131,101131,15212,13021,93707,100294
2025-05-29 11:10:11.138,101131,15234,13021,93695,100287
2025-05-29 11:10:11.150,101140,15224,13037,93675,100291
2025-05-29 11:10:11.153,101140,15224,13037,93675,100291
2025-05-29 11:10:11.158,101143,15246,13052,93670,100278
2025-05-29 11:10:11.170,101130,15255,13051,93676,100279
2025-05-29 11:10:11.197,101146,15269,13047,93667,100292
2025-05-29 11:10:11.199,101154,15269,13068,93666,100282
2025-05-29 11:10:11.200,101167,15270,13067,93662,100276
2025-05-29 11:10:11.211,101145,15276,13067,93660,100274
2025-05-29 11:10:11.217,101152,15281,13065,93655,100287
2025-05-29 11:10:11.230,101138,15288,13088,93662,100289
2025-05-29 11:10:11.237,101149,15302,13084,93635,100266
2025-05-29 11:10:11.268,101123,15293,13095,93637,100255
2025-05-29 11:10:11.270,101138,15303,13090,93616,100273
2025-05-29 11:10:11.271,101142,15299,13099,93620,100259
2025-05-29 11:10:11.277,101144,15303,13104,93618,100253
2025-05-29 11:10:11.290,101148,15304,13102,93611,100251
2025-05-29 11:10:11.298,101143,15310,13101,93604,100245
2025-05-29 11:10:11.309,101132,15303,13096,93596,100234
2025-05-29 11:10:11.337,101149,15291,13087,93587,100240
2025-05-29 11:10:11.338,101118,15268,13080,93580,100231
2025-05-29 11:10:11.341,101128,15260,13072,93580,100225
2025-05-29 11:10:11.351,101141,15273,13061,93575,100216
2025-05-29 11:10:11.361,101123,15243,13050,93556,100230
2025-05-29 11:10:11.370,101115,15233,13041,93560,100202
2025-05-29 11:10:11.381,101125,15226,13040,93570,100200
2025-05-29 11:10:11.406,101125,15227,13022,93569,100190
2025-05-29 11:10:11.408,101126,15218,13018,93567,100205
2025-05-29 11:10:11.411,101149,15199,13013,93576,100214
2025-05-29 11:10:11.421,101142,15192,13006,93591,100216
2025-05-29 11:10:11.430,101129,15197,13011,93606,100218
2025-05-29 11:10:11.441,101145,15184,13003,93612,100230
2025-05-29 11:10:11.450,101156,15185,12994,93611,100223
2025-05-29 11:10:11.479,101165,15186,13002,93623,100238
2025-05-29 11:10:11.481,101154,15173,12996,93628,100235
2025-05-29 11:10:11.483,101164,15183,12991,93634,100259
2025-05-29 11:10:11.489,101175,15168,12983,93657,100260
2025-05-29 11:10:11.502,101175,15175,12989,93653,100268
2025-05-29 11:10:11.510,101177,15170,12983,93648,100252
2025-05-29 11:10:11.522,101179,15171,12998,93655,100263
2025-05-29 11:10:11.550,101166,15166,12990,93663,100278
2025-05-29 11:10:11.551,101177,15164,12997,93672,100275
2025-05-29 11:10:11.553,101189,15174,12990,93659,100281
2025-05-29 11:10:11.562,101172,15173,12991,93673,100280
2025-05-29 11:10:11.570,101187,15173,12990,93673,100284
2025-05-29 11:10:11.582,101196,15184,12989,93674,100289
2025-05-29 11:10:11.589,101197,15173,13002,93685,100292
2025-05-29 11:10:11.622,101206,15180,13007,93683,100283
2025-05-29 11:10:11.623,101189,15174,13001,93699,100302
2025-05-29 11:10:11.625,101198,15187,12995,93697,100297
2025-05-29 11:10:11.629,101183,15177,12999,93673,100284
2025-05-29 11:10:11.642,101181,15177,13004,93675,100290
2025-05-29 11:10:11.651,101171,15177,12997,93676,100303
2025-05-29 11:10:11.663,101170,15179,12997,93654,100267
2025-05-29 11:10:11.670,101156,15173,13000,93646,100265
2025-05-29 11:10:11.707,101153,15172,12995,93616,100240
2025-05-29 11:10:11.709,101146,15160,12992,93593,100221
2025-05-29 11:10:11.712,101150,15161,12990,93546,100206
2025-05-29 11:10:11.715,101148,15160,13001,93534,100192
2025-05-29 11:10:11.721,101156,15165,13003,93523,100177
2025-05-29 11:10:11.735,101162,15166,13010,93504,100187
2025-05-29 11:10:11.742,101155,15176,13006,93513,100170
2025-05-29 11:10:11.755,101163,15184,13011,93505,100173
2025-05-29 11:10:11.782,101159,15185,13016,93525,100185
2025-05-29 11:10:11.784,101171,15193,13018,93514,100185
2025-05-29 11:10:11.785,101187,15194,13020,93526,100193
2025-05-29 11:10:11.794,101178,15193,13028,93535,100194
2025-05-29 11:10:11.801,101175,15199,13037,93524,100219
2025-05-29 11:10:11.814,101186,15211,13037,93546,100194
2025-05-29 11:10:11.821,101186,15213,13051,93550,100219
2025-05-29 11:10:11.846,101189,15215,13050,93554,100224
2025-05-29 11:10:11.848,101202,15227,13063,93547,100231
2025-05-29 11:10:11.853,101211,15231,13061,93546,100252
2025-05-29 11:10:11.862,101202,15245,13062,93569,100261
2025-05-29 11:10:11.874,101203,15252,13077,93578,100274
2025-05-29 11:10:11.881,101215,15259,13090,93581,100266
2025-05-29 11:10:11.893,101213,15257,13084,93593,100286
2025-05-29 11:10:11.912,101205,15260,13094,93587,100271
2025-05-29 11:10:11.913,101208,15272,13109,93599,100288
2025-05-29 11:10:11.921,101209,15288,13100,93607,100300
2025-05-29 11:10:11.933,101229,15285,13110,93604,100316
2025-05-29 11:10:11.942,101231,15298,13119,93610,100303
2025-05-29 11:10:11.953,101230,15303,13125,93622,100328
2025-05-29 11:10:11.961,101238,15314,13134,93633,100329
2025-05-29 11:10:11.980,101243,15326,13133,93632,100335
2025-05-29 11:10:11.982,101255,15334,13152,93644,100348
2025-05-29 11:10:11.993,101262,15336,13153,93637,100362
2025-05-29 11:10:12.002,101262,15364,13164,93644,100354
2025-05-29 11:10:12.013,101262,15355,13167,93644,100357
2025-05-29 11:10:12.022,101263,15360,13159,93649,100358
2025-05-29 11:10:12.047,101252,15375,13183,93649,100346
2025-05-29 11:10:12.049,101262,15373,13183,93639,100349
2025-05-29 11:10:12.053,101271,15383,13186,93636,100342
2025-05-29 11:10:12.062,101264,15392,13188,93629,100341
2025-05-29 11:10:12.074,101260,15402,13198,93620,100333
2025-05-29 11:10:12.081,101258,15410,13213,93619,100348
2025-05-29 11:10:12.093,101262,15424,13224,93617,100335
2025-05-29 11:10:12.113,101279,15430,13223,93608,100319
2025-05-29 11:10:12.115,101269,15429,13238,93607,100353
2025-05-29 11:10:12.121,101269,15444,13234,93598,100334
2025-05-29 11:10:12.132,101284,15440,13243,93626,100333
2025-05-29 11:10:12.141,101292,15452,13243,93608,100330
2025-05-29 11:10:12.154,101283,15455,13249,93621,100340
2025-05-29 11:10:12.179,101291,15452,13246,93637,100329
2025-05-29 11:10:12.180,101298,15456,13246,93636,100347
2025-05-29 11:10:12.185,101301,15456,13243,93636,100355
2025-05-29 11:10:12.194,101297,15440,13236,93632,100334
2025-05-29 11:10:12.206,101290,15432,13219,93627,100346
2025-05-29 11:10:12.213,101282,15426,13220,93629,100330
2025-05-29 11:10:12.226,101287,15414,13220,93638,100336
2025-05-29 11:10:12.246,101271,15403,13206,93635,100338
2025-05-29 11:10:12.248,101281,15395,13193,93639,100321
2025-05-29 11:10:12.254,101286,15382,13193,93641,100319
2025-05-29 11:10:12.266,101289,15385,13177,93631,100321
2025-05-29 11:10:12.274,101278,15368,13173,93656,100314
2025-05-29 11:10:12.286,101277,15367,13164,93665,100316
2025-05-29 11:10:12.294,101271,15367,13150,93652,100313
2025-05-29 11:10:12.324,101283,15357,13164,93655,100319
2025-05-29 11:10:12.326,101269,15360,13155,93659,100324
2025-05-29 11:10:12.328,101273,15353,13155,93661,100319
2025-05-29 11:10:12.333,101268,15355,13157,93663,100308
2025-05-29 11:10:12.346,101276,15352,13147,93651,100329
2025-05-29 11:10:12.355,101272,15360,13147,93665,100333
2025-05-29 11:10:12.366,101262,15352,13147,93668,100303
2025-05-29 11:10:12.397,101257,15349,13152,93672,100307
2025-05-29 11:10:12.399,101262,15347,13139,93650,100310
2025-05-29 11:10:12.400,101273,15343,13142,93641,100306
2025-05-29 11:10:12.406,101258,15346,13141,93622,100292
2025-05-29 11:10:12.413,101259,15342,13136,93621,100286
2025-05-29 11:10:12.425,101248,15341,13144,93616,100280
2025-05-29 11:10:12.434,101265,15353,13146,93609,100283
2025-05-29 11:10:12.446,101245,15348,13142,93598,100288
2025-05-29 11:10:12.474,101257,15344,13140,93595,100254
2025-05-29 11:10:12.476,101247,15350,13152,93593,100269
2025-05-29 11:10:12.478,101258,15348,13144,93605,100254
2025-05-29 11:10:12.486,101252,15366,13158,93574,100244
2025-05-29 11:10:12.493,101238,15367,13149,93574,100258
2025-05-29 11:10:12.506,101237,15367,13149,93585,100246
2025-05-29 11:10:12.515,101242,15361,13160,93563,100231
2025-05-29 11:10:12.546,101225,15361,13160,93545,100223
2025-05-29 11:10:12.548,101210,15362,13156,93524,100236
2025-05-29 11:10:12.550,101232,15368,13166,93536,100220
2025-05-29 11:10:12.557,101231,15371,13153,93549,100218
2025-05-29 11:10:12.566,101233,15368,13165,93540,100239
2025-05-29 11:10:12.577,101242,15370,13174,93525,100224
2025-05-29 11:10:12.585,101246,15378,13176,93535,100236
2025-05-29 11:10:12.613,101265,15389,13164,93535,100228
2025-05-29 11:10:12.615,101266,15378,13167,93537,100220
2025-05-29 11:10:12.616,101276,15405,13180,93546,100240
2025-05-29 11:10:12.625,101294,15403,13181,93550,100242
2025-05-29 11:10:12.637,101283,15406,13183,93540,100244
2025-05-29 11:10:12.645,101300,15400,13191,93564,100253
2025-05-29 11:10:12.658,101305,15405,13197,93561,100251
2025-05-29 11:10:12.678,101302,15408,13198,93559,100250
2025-05-29 11:10:12.679,101315,15421,13205,93573,100271
2025-05-29 11:10:12.685,101331,15430,13203,93586,100269
2025-05-29 11:10:12.697,101334,15433,13215,93606,100293
2025-05-29 11:10:12.706,101314,15449,13217,93611,100284
2025-05-29 11:10:12.717,101340,15462,13231,93637,100308
2025-05-29 11:10:12.724,101341,15460,13235,93625,100322
2025-05-29 11:10:12.745,101342,15477,13238,93644,100322
2025-05-29 11:10:12.746,101359,15466,13247,93649,100327
2025-05-29 11:10:12.758,101341,15493,13233,93648,100336
2025-05-29 11:10:12.761,101341,15493,13233,93648,100336
2025-05-29 11:10:12.766,101349,15494,13252,93651,100341
2025-05-29 11:10:12.777,101366,15501,13250,93658,100313
2025-05-29 11:10:12.786,101366,15493,13268,93674,100335
2025-05-29 11:10:12.819,101377,15506,13266,93679,100346
2025-05-29 11:10:12.821,101383,15498,13271,93699,100346
2025-05-29 11:10:12.823,101405,15506,13274,93717,100358
2025-05-29 11:10:12.826,101414,15507,13275,93745,100356
2025-05-29 11:10:12.838,101434,15511,13282,93754,100361
2025-05-29 11:10:12.846,101440,15520,13289,93782,100373
2025-05-29 11:10:12.857,101453,15532,13293,93795,100401
2025-05-29 11:10:12.866,101452,15542,13298,93820,100382
2025-05-29 11:10:12.889,101467,15547,13303,93817,100406
2025-05-29 11:10:12.891,101468,15567,13307,93826,100409
2025-05-29 11:10:12.898,101487,15568,13310,93848,100411
2025-05-29 11:10:12.905,101490,15576,13320,93846,100417
2025-05-29 11:10:12.918,101502,15596,13324,93849,100432
2025-05-29 11:10:12.926,101488,15594,13331,93879,100434
2025-05-29 11:10:12.937,101504,15603,13328,93862,100424
2025-05-29 11:10:12.958,101506,15608,13351,93870,100424
2025-05-29 11:10:12.959,101502,15620,13333,93865,100450
2025-05-29 11:10:12.969,101523,15605,13344,93879,100452
2025-05-29 11:10:12.977,101528,15608,13342,93894,100455
2025-05-29 11:10:12.989,101527,15598,13325,93909,100484
2025-05-29 11:10:12.997,101529,15594,13328,93922,100480
2025-05-29 11:10:13.023,101544,15598,13313,93942,100479
2025-05-29 11:10:13.025,101538,15572,13312,93931,100481
2025-05-29 11:10:13.029,101539,15571,13313,93935,100487
2025-05-29 11:10:13.036,101521,15565,13293,93943,100500
2025-05-29 11:10:13.049,101538,15562,13297,93948,100486
2025-05-29 11:10:13.058,101532,15555,13281,93948,100490
2025-05-29 11:10:13.069,101539,15558,13294,93960,100497
2025-05-29 11:10:13.089,101544,15553,13270,93968,100517
2025-05-29 11:10:13.091,101549,15542,13294,93973,100517
2025-05-29 11:10:13.098,101557,15549,13278,93969,100551
2025-05-29 11:10:13.109,101557,15550,13274,93986,100528
2025-05-29 11:10:13.118,101572,15549,13273,93987,100567
2025-05-29 11:10:13.129,101560,15553,13270,93992,100569
2025-05-29 11:10:13.137,101560,15560,13268,94009,100574
2025-05-29 11:10:13.156,101575,15540,13260,94018,100581
2025-05-29 11:10:13.158,101581,15557,13269,94032,100584
2025-05-29 11:10:13.169,101586,15552,13271,94038,100617
2025-05-29 11:10:13.177,101582,15559,13262,94019,100607
2025-05-29 11:10:13.190,101570,15558,13275,94034,100592
2025-05-29 11:10:13.197,101563,15560,13265,94023,100599
2025-05-29 11:10:13.222,101551,15562,13274,94011,100592
2025-05-29 11:10:13.223,101566,15567,13270,94012,100598
2025-05-29 11:10:13.230,101547,15556,13280,94004,100584
2025-05-29 11:10:13.237,101547,15562,13292,93993,100575
2025-05-29 11:10:13.249,101538,15564,13283,93996,100570
2025-05-29 11:10:13.257,101541,15568,13294,93977,100585
2025-05-29 11:10:13.269,101532,15563,13285,93961,100569
2025-05-29 11:10:13.287,101529,15564,13299,93958,100564
2025-05-29 11:10:13.289,101531,15567,13288,93946,100544
2025-05-29 11:10:13.297,101529,15563,13292,93928,100548
2025-05-29 11:10:13.309,101525,15570,13289,93937,100546
2025-05-29 11:10:13.317,101530,15561,13288,93940,100551
2025-05-29 11:10:13.329,101534,15571,13291,93925,100550
2025-05-29 11:10:13.352,101529,15579,13283,93923,100542
2025-05-29 11:10:13.354,101535,15578,13282,93954,100547
2025-05-29 11:10:13.362,101532,15578,13302,93936,100559
2025-05-29 11:10:13.369,101542,15596,13298,93942,100551
2025-05-29 11:10:13.381,101557,15595,13304,93956,100578
2025-05-29 11:10:13.389,101553,15594,13300,93950,100576
2025-05-29 11:10:13.401,101562,15602,13307,93960,100586
2025-05-29 11:10:13.421,101574,15606,13318,93980,100597
2025-05-29 11:10:13.423,101585,15617,13320,93981,100616
2025-05-29 11:10:13.429,101578,15618,13331,93992,100631
2025-05-29 11:10:13.440,101603,15625,13330,93996,100621
2025-05-29 11:10:13.449,101598,15637,13339,94025,100636
2025-05-29 11:10:13.461,101605,15642,13357,94034,100640
2025-05-29 11:10:13.468,101601,15646,13349,94049,100663
2025-05-29 11:10:13.486,101626,15658,13357,94064,100685
2025-05-29 11:10:13.489,101638,15659,13366,94080,100695
2025-05-29 11:10:13.501,101655,15674,13369,94084,100705
2025-05-29 11:10:13.510,101646,15683,13374,94106,100714
2025-05-29 11:10:13.521,101647,15686,13374,94128,100740
2025-05-29 11:10:13.529,101653,15691,13392,94139,100738
2025-05-29 11:10:13.551,101669,15710,13385,94159,100755
2025-05-29 11:10:13.553,101669,15705,13401,94147,100750
2025-05-29 11:10:13.562,101662,15704,13406,94166,100752
2025-05-29 11:10:13.569,101644,15722,13403,94163,100771
2025-05-29 11:10:13.581,101659,15725,13400,94169,100768
2025-05-29 11:10:13.589,101654,15730,13411,94173,100770
2025-05-29 11:10:13.618,101641,15740,13419,94156,100767
2025-05-29 11:10:13.620,101632,15745,13424,94149,100759
2025-05-29 11:10:13.621,101632,15745,13426,94143,100751
2025-05-29 11:10:13.629,101628,15752,13434,94146,100752
2025-05-29 11:10:13.641,101621,15758,13426,94132,100745
2025-05-29 11:10:13.649,101621,15757,13435,94135,100730
2025-05-29 11:10:13.661,101629,15767,13436,94130,100739
2025-05-29 11:10:13.684,101623,15767,13442,94137,100732
2025-05-29 11:10:13.685,101607,15775,13441,94129,100726
2025-05-29 11:10:13.689,101616,15767,13440,94134,100736
2025-05-29 11:10:13.701,101618,15763,13432,94149,100711
2025-05-29 11:10:13.709,101605,15752,13430,94137,100710
2025-05-29 11:10:13.720,101620,15760,13419,94149,100720
2025-05-29 11:10:13.729,101591,15743,13420,94148,100710
2025-05-29 11:10:13.749,101597,15733,13416,94139,100724
2025-05-29 11:10:13.750,101591,15714,13401,94142,100702
2025-05-29 11:10:13.761,101595,15710,13391,94138,100698
2025-05-29 11:10:13.774,101585,15694,13376,94142,100709
2025-05-29 11:10:13.780,101586,15687,13379,94125,100697
2025-05-29 11:10:13.793,101586,15684,13366,94128,100692
2025-05-29 11:10:13.815,101590,15672,13357,94125,100697
2025-05-29 11:10:13.816,101587,15670,13359,94142,100700
2025-05-29 11:10:13.820,101596,15650,13346,94138,100716
2025-05-29 11:10:13.833,101587,15658,13345,94147,100710
2025-05-29 11:10:13.841,101599,15671,13336,94171,100721
2025-05-29 11:10:13.852,101593,15649,13337,94189,100734
2025-05-29 11:10:13.861,101605,15642,13332,94188,100735
2025-05-29 11:10:13.880,101599,15646,13329,94198,100724
2025-05-29 11:10:13.881,101593,15636,13331,94213,100739
2025-05-29 11:10:13.892,101594,15637,13322,94223,100745
2025-05-29 11:10:13.901,101585,15638,13327,94225,100748
2025-05-29 11:10:13.913,101593,15633,13320,94232,100731
2025-05-29 11:10:13.921,101594,15632,13326,94221,100735
2025-05-29 11:10:13.944,101584,15635,13321,94226,100734
2025-05-29 11:10:13.946,101575,15636,13312,94206,100729
2025-05-29 11:10:13.953,101571,15635,13317,94220,100733
2025-05-29 11:10:13.961,101570,15641,13319,94203,100743
2025-05-29 11:10:13.973,101580,15634,13323,94196,100725
2025-05-29 11:10:13.981,101573,15637,13321,94211,100723
2025-05-29 11:10:13.994,101563,15639,13318,94197,100731
2025-05-29 11:10:14.015,101551,15641,13312,94203,100722
2025-05-29 11:10:14.017,101575,15634,13316,94203,100710
2025-05-29 11:10:14.021,101565,15630,13309,94195,100721
2025-05-29 11:10:14.033,101567,15627,13317,94198,100709
2025-05-29 11:10:14.041,101558,15627,13308,94197,100721
2025-05-29 11:10:14.052,101559,15624,13309,94183,100694
2025-05-29 11:10:14.061,101552,15634,13318,94188,100712
2025-05-29 11:10:14.083,101547,15619,13312,94188,100699
2025-05-29 11:10:14.085,101555,15624,13317,94189,100678
2025-05-29 11:10:14.093,101555,15631,13311,94165,100696
2025-05-29 11:10:14.102,101560,15629,13315,94186,100674
2025-05-29 11:10:14.113,101563,15637,13312,94182,100694
2025-05-29 11:10:14.121,101563,15634,13314,94187,100679
2025-05-29 11:10:14.152,101567,15643,13315,94204,100703
2025-05-29 11:10:14.154,101566,15637,13324,94201,100697
2025-05-29 11:10:14.156,101564,15647,13329,94202,100704
2025-05-29 11:10:14.165,101569,15653,13330,94214,100726
2025-05-29 11:10:14.166,101569,15653,13330,94214,100726
2025-05-29 11:10:14.173,101585,15655,13332,94231,100719
2025-05-29 11:10:14.182,101580,15667,13328,94216,100725
2025-05-29 11:10:14.194,101580,15669,13345,94225,100737
2025-05-29 11:10:14.218,101555,15678,13346,94203,100728
2025-05-29 11:10:14.219,101573,15677,13356,94206,100721
2025-05-29 11:10:14.225,101574,15688,13359,94207,100734
2025-05-29 11:10:14.234,101580,15686,13363,94225,100730
2025-05-29 11:10:14.245,101580,15701,13370,94232,100740
2025-05-29 11:10:14.253,101591,15703,13378,94223,100737
2025-05-29 11:10:14.265,101592,15706,13382,94233,100740
2025-05-29 11:10:14.282,101595,15717,13386,94240,100755
2025-05-29 11:10:14.285,101601,15725,13375,94232,100758
2025-05-29 11:10:14.292,101601,15723,13392,94281,100771
2025-05-29 11:10:14.305,101609,15732,13397,94262,100778
2025-05-29 11:10:14.313,101621,15744,13398,94268,100763
2025-05-29 11:10:14.325,101615,15740,13413,94259,100796
2025-05-29 11:10:14.348,101630,15735,13408,94285,100792
2025-05-29 11:10:14.349,101636,15754,13421,94298,100790
2025-05-29 11:10:14.353,101628,15758,13424,94282,100814
2025-05-29 11:10:14.366,101614,15751,13425,94298,100799
2025-05-29 11:10:14.373,101611,15777,13427,94284,100801
2025-05-29 11:10:14.385,101620,15770,13430,94287,100788
2025-05-29 11:10:14.392,101616,15777,13441,94276,100796
2025-05-29 11:10:14.414,101617,15783,13447,94274,100796
2025-05-29 11:10:14.415,101606,15792,13445,94260,100800
2025-05-29 11:10:14.425,101619,15799,13446,94272,100780
2025-05-29 11:10:14.433,101608,15794,13451,94249,100786
2025-05-29 11:10:14.444,101585,15793,13454,94239,100776
2025-05-29 11:10:14.454,101598,15794,13438,94226,100766
2025-05-29 11:10:14.478,101597,15793,13446,94232,100751
2025-05-29 11:10:14.480,101589,15784,13440,94236,100751
2025-05-29 11:10:14.485,101590,15776,13430,94239,100755
2025-05-29 11:10:14.493,101595,15775,13425,94259,100758
2025-05-29 11:10:14.505,101575,15765,13420,94225,100758
2025-05-29 11:10:14.513,101590,15744,13407,94237,100741
2025-05-29 11:10:14.525,101581,15735,13399,94236,100743
2025-05-29 11:10:14.544,101585,15728,13382,94248,100743
2025-05-29 11:10:14.545,101564,15715,13375,94228,100739
2025-05-29 11:10:14.553,101565,15694,13359,94212,100725
2025-05-29 11:10:14.565,101569,15677,13355,94222,100716
2025-05-29 11:10:14.576,101563,15675,13341,94221,100713
2025-05-29 11:10:14.585,101576,15672,13334,94237,100729
2025-05-29 11:10:14.610,101577,15663,13313,94243,100740
2025-05-29 11:10:14.612,101578,15667,13321,94254,100736
2025-05-29 11:10:14.618,101595,15658,13323,94269,100729
2025-05-29 11:10:14.626,101595,15647,13317,94287,100752
2025-05-29 11:10:14.637,101596,15646,13312,94300,100762
2025-05-29 11:10:14.645,101603,15645,13305,94306,100769
2025-05-29 11:10:14.657,101595,15626,13311,94307,100773
2025-05-29 11:10:14.676,101601,15632,13301,94314,100784
2025-05-29 11:10:14.678,101603,15626,13298,94318,100783
2025-05-29 11:10:14.686,101610,15626,13290,94352,100769
2025-05-29 11:10:14.697,101611,15606,13287,94330,100779
2025-05-29 11:10:14.705,101614,15622,13282,94327,100785
2025-05-29 11:10:14.717,101594,15616,13279,94308,100765
2025-05-29 11:10:14.725,101593,15611,13280,94327,100775
2025-05-29 11:10:14.742,101605,15612,13291,94326,100776
2025-05-29 11:10:14.745,101613,15613,13284,94333,100782
2025-05-29 11:10:14.758,101606,15622,13280,94347,100777
2025-05-29 11:10:14.765,101598,15616,13280,94347,100786
2025-05-29 11:10:14.776,101607,15607,13277,94334,100780
2025-05-29 11:10:14.785,101598,15602,13270,94335,100781
2025-05-29 11:10:14.807,101598,15610,13278,94335,100784
2025-05-29 11:10:14.808,101606,15606,13276,94349,100781
2025-05-29 11:10:14.818,101586,15601,13275,94350,100777
2025-05-29 11:10:14.825,101593,15602,13273,94344,100776
2025-05-29 11:10:14.837,101578,15613,13273,94334,100768
2025-05-29 11:10:14.845,101573,15601,13273,94328,100757
2025-05-29 11:10:14.875,101590,15598,13282,94314,100765
2025-05-29 11:10:14.876,101572,15604,13263,94310,100752
2025-05-29 11:10:14.877,101577,15599,13268,94296,100755
2025-05-29 11:10:14.885,101589,15597,13264,94312,100743
2025-05-29 11:10:14.898,101566,15593,13275,94302,100731
2025-05-29 11:10:14.905,101572,15605,13258,94289,100744
2025-05-29 11:10:14.917,101568,15606,13282,94303,100741
2025-05-29 11:10:14.941,101572,15602,13276,94291,100755
2025-05-29 11:10:14.942,101568,15595,13274,94305,100754
2025-05-29 11:10:14.945,101573,15600,13283,94301,100758
2025-05-29 11:10:14.957,101581,15605,13279,94290,100752
2025-05-29 11:10:14.970,101585,15615,13282,94291,100758
2025-05-29 11:10:14.976,101571,15611,13285,94297,100756
2025-05-29 11:10:14.989,101574,15613,13296,94281,100744
2025-05-29 11:10:15.008,101560,15624,13287,94277,100768
2025-05-29 11:10:15.010,101589,15623,13298,94276,100754
2025-05-29 11:10:15.017,101594,15628,13296,94274,100747
2025-05-29 11:10:15.029,101580,15628,13300,94274,100754
2025-05-29 11:10:15.037,101574,15635,13307,94286,100753
2025-05-29 11:10:15.048,101587,15639,13306,94268,100759
2025-05-29 11:10:15.057,101601,15634,13315,94284,100768
2025-05-29 11:10:15.075,101598,15646,13319,94312,100773
2025-05-29 11:10:15.077,101610,15653,13309,94300,100769
2025-05-29 11:10:15.088,101618,15662,13307,94304,100791
2025-05-29 11:10:15.097,101619,15662,13334,94320,100781
2025-05-29 11:10:15.109,101636,15673,13328,94323,100803
2025-05-29 11:10:15.116,101617,15680,13338,94339,100793
2025-05-29 11:10:15.139,101638,15686,13325,94322,100793
2025-05-29 11:10:15.141,101612,15698,13358,94323,100813
2025-05-29 11:10:15.149,101628,15693,13346,94319,100819
2025-05-29 11:10:15.157,101610,15699,13354,94310,100811
2025-05-29 11:10:15.169,101636,15704,13361,94326,100811
2025-05-29 11:10:15.176,101636,15701,13369,94332,100822
2025-05-29 11:10:15.189,101641,15715,13372,94334,100824
2025-05-29 11:10:15.207,101636,15720,13367,94345,100822
2025-05-29 11:10:15.209,101631,15724,13382,94352,100840
2025-05-29 11:10:15.217,101638,15728,13386,94354,100828
2025-05-29 11:10:15.229,101627,15742,13387,94352,100827
2025-05-29 11:10:15.237,101640,15752,13392,94338,100830
2025-05-29 11:10:15.248,101636,15742,13394,94338,100830
2025-05-29 11:10:15.274,101642,15750,13395,94333,100828
2025-05-29 11:10:15.276,101642,15759,13389,94338,100833
2025-05-29 11:10:15.277,101634,15747,13400,94316,100836
2025-05-29 11:10:15.289,101627,15761,13389,94311,100820
2025-05-29 11:10:15.297,101627,15743,13394,94325,100806
2025-05-29 11:10:15.308,101615,15731,13379,94314,100799
2025-05-29 11:10:15.317,101610,15719,13379,94336,100794
2025-05-29 11:10:15.341,101607,15711,13366,94323,100787
2025-05-29 11:10:15.342,101610,15709,13352,94309,100775
2025-05-29 11:10:15.349,101600,15686,13340,94323,100763
2025-05-29 11:10:15.358,101586,15683,13328,94313,100769
2025-05-29 11:10:15.369,101594,15662,13321,94318,100775
2025-05-29 11:10:15.380,101591,15665,13303,94317,100754
2025-05-29 11:10:15.389,101596,15635,13289,94325,100763
2025-05-29 11:10:15.411,101589,15637,13287,94319,100754
2025-05-29 11:10:15.412,101593,15635,13278,94319,100755
2025-05-29 11:10:15.421,101602,15617,13268,94322,100755
2025-05-29 11:10:15.430,101582,15619,13265,94321,100760
2025-05-29 11:10:15.441,101596,15597,13265,94317,100761
2025-05-29 11:10:15.449,101591,15608,13255,94327,100754
2025-05-29 11:10:15.480,101593,15597,13253,94316,100756
2025-05-29 11:10:15.482,101599,15592,13239,94330,100755
2025-05-29 11:10:15.483,101582,15583,13243,94326,100763
2025-05-29 11:10:15.489,101591,15580,13230,94328,100744
2025-05-29 11:10:15.501,101592,15582,13230,94331,100751
2025-05-29 11:10:15.509,101584,15579,13219,94339,100741
2025-05-29 11:10:15.521,101595,15566,13219,94320,100749
2025-05-29 11:10:15.546,101590,15567,13222,94337,100738
2025-05-29 11:10:15.548,101582,15564,13217,94332,100744
2025-05-29 11:10:15.549,101583,15557,13220,94321,100741
2025-05-29 11:10:15.561,101577,15556,13220,94325,100746
2025-05-29 11:10:15.569,101570,15560,13224,94323,100733
2025-05-29 11:10:15.581,101562,15555,13214,94316,100718
2025-05-29 11:10:15.589,101563,15556,13210,94308,100716
2025-05-29 11:10:15.611,101558,15544,13214,94309,100716
2025-05-29 11:10:15.612,101574,15553,13209,94305,100706
2025-05-29 11:10:15.622,101560,15549,13217,94296,100726
2025-05-29 11:10:15.629,101577,15551,13206,94283,100698
2025-05-29 11:10:15.640,101550,15554,13213,94291,100694
2025-05-29 11:10:15.649,101543,15546,13202,94283,100703
2025-05-29 11:10:15.677,101551,15547,13212,94281,100682
2025-05-29 11:10:15.678,101541,15538,13201,94282,100672
2025-05-29 11:10:15.680,101534,15543,13205,94268,100663
2025-05-29 11:10:15.689,101531,15532,13194,94247,100654
2025-05-29 11:10:15.701,101535,15531,13190,94244,100629
2025-05-29 11:10:15.709,101524,15544,13198,94210,100638
2025-05-29 11:10:15.720,101518,15536,13201,94218,100628
2025-05-29 11:10:15.742,101533,15536,13207,94209,100638
2025-05-29 11:10:15.744,101518,15532,13190,94199,100624
2025-05-29 11:10:15.749,101520,15532,13206,94202,100619
2025-05-29 11:10:15.761,101523,15534,13191,94194,100618
2025-05-29 11:10:15.773,101521,15539,13217,94192,100608
2025-05-29 11:10:15.776,101521,15539,13217,94192,100608
2025-05-29 11:10:15.780,101515,15547,13212,94184,100611
2025-05-29 11:10:15.811,101521,15553,13210,94188,100619
2025-05-29 11:10:15.813,101527,15554,13215,94171,100627
2025-05-29 11:10:15.815,101532,15560,13214,94185,100609
2025-05-29 11:10:15.822,101525,15555,13227,94181,100623
2025-05-29 11:10:15.833,101537,15566,13225,94186,100632
2025-05-29 11:10:15.841,101545,15569,13237,94189,100622
2025-05-29 11:10:15.852,101545,15573,13234,94188,100644
2025-05-29 11:10:15.882,101557,15579,13238,94179,100629
2025-05-29 11:10:15.883,101559,15587,13246,94168,100640
2025-05-29 11:10:15.885,101560,15596,13247,94192,100642
2025-05-29 11:10:15.893,101559,15592,13255,94196,100638
2025-05-29 11:10:15.900,101560,15591,13261,94188,100651
2025-05-29 11:10:15.913,101581,15607,13260,94196,100666
2025-05-29 11:10:15.920,101576,15607,13273,94208,100652
2025-05-29 11:10:15.947,101572,15617,13272,94191,100653
2025-05-29 11:10:15.949,101586,15622,13275,94199,100643
2025-05-29 11:10:15.953,101581,15622,13268,94204,100648
2025-05-29 11:10:15.962,101593,15630,13272,94205,100666
2025-05-29 11:10:15.973,101603,15632,13286,94200,100678
2025-05-29 11:10:15.981,101618,15649,13288,94216,100663
2025-05-29 11:10:15.992,101599,15652,13305,94214,100663
2025-05-29 11:10:16.013,101592,15660,13299,94219,100655
2025-05-29 11:10:16.015,101597,15668,13305,94203,100681
2025-05-29 11:10:16.020,101608,15668,13309,94207,100690
2025-05-29 11:10:16.033,101594,15679,13314,94220,100695
2025-05-29 11:10:16.041,101595,15681,13313,94201,100685
2025-05-29 11:10:16.052,101598,15685,13320,94191,100703
2025-05-29 11:10:16.061,101599,15695,13329,94194,100672
2025-05-29 11:10:16.078,101598,15697,13338,94203,100679
2025-05-29 11:10:16.080,101608,15712,13333,94191,100669
2025-05-29 11:10:16.093,101620,15710,13334,94209,100680
2025-05-29 11:10:16.100,101618,15708,13335,94172,100699
2025-05-29 11:10:16.113,101591,15721,13344,94179,100691
2025-05-29 11:10:16.125,101601,15708,13349,94179,100672
2025-05-29 11:10:16.145,101597,15713,13339,94153,100663
2025-05-29 11:10:16.146,101588,15701,13331,94153,100670
2025-05-29 11:10:16.153,101583,15693,13328,94152,100656
2025-05-29 11:10:16.165,101570,15687,13319,94152,100636
2025-05-29 11:10:16.173,101572,15677,13309,94140,100629
2025-05-29 11:10:16.185,101564,15668,13301,94131,100606
2025-05-29 11:10:16.211,101560,15661,13299,94131,100615
2025-05-29 11:10:16.228,101571,15650,13275,94108,100615
2025-05-29 11:10:16.230,101551,15638,13277,94109,100611
2025-05-29 11:10:16.231,101553,15616,13266,94104,100588
2025-05-29 11:10:16.233,101535,15622,13259,94113,100607
2025-05-29 11:10:16.244,101549,15612,13247,94123,100594
2025-05-29 11:10:16.254,101551,15604,13237,94115,100599
2025-05-29 11:10:16.265,101547,15599,13225,94121,100619
2025-05-29 11:10:16.273,101552,15596,13222,94104,100600
2025-05-29 11:10:16.293,101547,15586,13222,94131,100601
2025-05-29 11:10:16.295,101555,15584,13220,94117,100604
2025-05-29 11:10:16.305,101554,15586,13217,94125,100593
2025-05-29 11:10:16.313,101536,15581,13203,94116,100585
2025-05-29 11:10:16.325,101529,15576,13215,94115,100599
2025-05-29 11:10:16.332,101537,15576,13205,94104,100590
2025-05-29 11:10:16.359,101545,15570,13203,94107,100575
2025-05-29 11:10:16.360,101534,15569,13203,94105,100597
2025-05-29 11:10:16.365,101546,15575,13204,94100,100595
2025-05-29 11:10:16.372,101536,15565,13197,94097,100601
2025-05-29 11:10:16.384,101545,15575,13216,94083,100603
2025-05-29 11:10:16.393,101530,15571,13202,94069,100574
2025-05-29 11:10:16.405,101534,15558,13205,94070,100565
2025-05-29 11:10:16.426,101527,15565,13198,94067,100575
2025-05-29 11:10:16.427,101508,15564,13188,94061,100557
2025-05-29 11:10:16.433,101502,15562,13192,94044,100566
2025-05-29 11:10:16.445,101507,15552,13192,94020,100561
2025-05-29 11:10:16.453,101487,15562,13202,94016,100548
2025-05-29 11:10:16.465,101483,15560,13192,94001,100532
2025-05-29 11:10:16.473,101491,15551,13181,93998,100532
2025-05-29 11:10:16.493,101478,15550,13188,93996,100509
2025-05-29 11:10:16.495,101482,15541,13182,93963,100503
2025-05-29 11:10:16.505,101477,15548,13183,93943,100488
2025-05-29 11:10:16.514,101476,15536,13184,93948,100501
2025-05-29 11:10:16.525,101470,15553,13177,93947,100492
2025-05-29 11:10:16.533,101473,15534,13186,93946,100481
2025-05-29 11:10:16.559,101466,15549,13184,93937,100499
2025-05-29 11:10:16.560,101470,15555,13186,93923,100490
2025-05-29 11:10:16.564,101462,15545,13189,93909,100498
2025-05-29 11:10:16.576,101459,15555,13186,93936,100500
2025-05-29 11:10:16.585,101477,15548,13194,93904,100491
2025-05-29 11:10:16.597,101459,15560,13207,93900,100491
2025-05-29 11:10:16.605,101457,15560,13203,93912,100497
2025-05-29 11:10:16.625,101479,15558,13201,93905,100504
2025-05-29 11:10:16.626,101493,15559,13210,93904,100508
2025-05-29 11:10:16.636,101491,15563,13211,93922,100513
2025-05-29 11:10:16.644,101497,15580,13207,93925,100523
2025-05-29 11:10:16.657,101515,15578,13220,93952,100549
2025-05-29 11:10:16.664,101527,15586,13226,93947,100558
2025-05-29 11:10:16.690,101520,15602,13233,93976,100577
2025-05-29 11:10:16.691,101539,15602,13230,93996,100585
2025-05-29 11:10:16.697,101538,15600,13244,94009,100603
2025-05-29 11:10:16.704,101543,15610,13238,94012,100601
2025-05-29 11:10:16.717,101531,15615,13248,94006,100612
2025-05-29 11:10:16.725,101542,15625,13249,94027,100619
2025-05-29 11:10:16.736,101549,15636,13263,94024,100609
2025-05-29 11:10:16.756,101557,15639,13267,94020,100636
2025-05-29 11:10:16.758,101546,15651,13274,94030,100625
2025-05-29 11:10:16.766,101556,15651,13269,94037,100629
2025-05-29 11:10:16.777,101552,15647,13269,94043,100646
2025-05-29 11:10:16.785,101559,15666,13276,94027,100627
2025-05-29 11:10:16.797,101561,15657,13278,94036,100664
2025-05-29 11:10:16.823,101564,15673,13291,94029,100639
2025-05-29 11:10:16.825,101560,15669,13281,94037,100674
2025-05-29 11:10:16.826,101572,15681,13300,94038,100656
2025-05-29 11:10:16.836,101566,15675,13300,94039,100637
2025-05-29 11:10:16.845,101570,15692,13305,94034,100667
2025-05-29 11:10:16.857,101561,15695,13303,94028,100664
2025-05-29 11:10:16.864,101574,15681,13307,94032,100664
2025-05-29 11:10:16.888,101560,15690,13310,94031,100665
2025-05-29 11:10:16.890,101571,15682,13301,94023,100658
2025-05-29 11:10:16.897,101580,15689,13296,94039,100662
2025-05-29 11:10:16.905,101581,15678,13283,94048,100656
2025-05-29 11:10:16.918,101574,15668,13284,94066,100662
2025-05-29 11:10:16.924,101567,15659,13272,94066,100665
2025-05-29 11:10:16.936,101567,15651,13267,94058,100648
2025-05-29 11:10:16.954,101576,15631,13257,94060,100657
2025-05-29 11:10:16.957,101576,15629,13242,94072,100667
2025-05-29 11:10:16.968,101570,15616,13225,94086,100658
2025-05-29 11:10:16.978,101562,15600,13220,94078,100663
2025-05-29 11:10:16.988,101574,15594,13202,94091,100668
2025-05-29 11:10:16.998,101572,15591,13221,94101,100671
2025-05-29 11:10:17.024,101590,15573,13210,94113,100686
2025-05-29 11:10:17.025,101591,15581,13197,94118,100675
2025-05-29 11:10:17.029,101590,15565,13192,94145,100679
2025-05-29 11:10:17.038,101594,15563,13196,94154,100716
2025-05-29 11:10:17.049,101604,15568,13199,94177,100721
2025-05-29 11:10:17.057,101619,15565,13178,94182,100724
2025-05-29 11:10:17.069,101628,15568,13194,94206,100733
2025-05-29 11:10:17.092,101602,15557,13176,94195,100730
2025-05-29 11:10:17.093,101621,15563,13191,94199,100734
2025-05-29 11:10:17.096,101608,15547,13190,94195,100736
2025-05-29 11:10:17.109,101608,15564,13188,94200,100732
2025-05-29 11:10:17.117,101614,15547,13182,94205,100742
2025-05-29 11:10:17.129,101592,15548,13184,94189,100727
2025-05-29 11:10:17.136,101582,15539,13175,94197,100726
2025-05-29 11:10:17.157,101586,15541,13176,94185,100729
2025-05-29 11:10:17.158,101581,15544,13170,94187,100734
2025-05-29 11:10:17.169,101558,15544,13175,94182,100730
2025-05-29 11:10:17.177,101573,15537,13174,94175,100715
2025-05-29 11:10:17.188,101566,15537,13177,94163,100714
2025-05-29 11:10:17.197,101562,15544,13175,94159,100693
2025-05-29 11:10:17.225,101560,15548,13160,94147,100687
2025-05-29 11:10:17.226,101558,15530,13165,94159,100704
2025-05-29 11:10:17.228,101561,15537,13170,94156,100702
2025-05-29 11:10:17.237,101561,15530,13167,94170,100718
2025-05-29 11:10:17.248,101561,15534,13174,94153,100710
2025-05-29 11:10:17.256,101570,15537,13177,94195,100716
2025-05-29 11:10:17.269,101600,15542,13181,94226,100728
2025-05-29 11:10:17.297,101606,15547,13177,94250,100757
2025-05-29 11:10:17.298,101642,15543,13180,94275,100783
2025-05-29 11:10:17.300,101653,15552,13188,94325,100804
2025-05-29 11:10:17.308,101680,15560,13200,94361,100838
2025-05-29 11:10:17.317,101692,15567,13198,94397,100845
2025-05-29 11:10:17.329,101674,15579,13203,94406,100891
2025-05-29 11:10:17.336,101699,15571,13203,94447,100880
2025-05-29 11:10:17.371,101700,15577,13210,94475,100878
2025-05-29 11:10:17.374,101681,15580,13209,94470,100882
2025-05-29 11:10:17.375,101669,15587,13207,94451,100894
2025-05-29 11:10:17.382,101642,15568,13206,94442,100869
2025-05-29 11:10:17.385,101642,15568,13206,94442,100869
2025-05-29 11:10:17.389,101601,15582,13195,94385,100822
2025-05-29 11:10:17.402,101561,15575,13194,94328,100793
2025-05-29 11:10:17.409,101543,15574,13206,94298,100751
2025-05-29 11:10:17.438,101517,15551,13199,94229,100727
2025-05-29 11:10:17.440,101510,15551,13195,94198,100711
2025-05-29 11:10:17.441,101470,15560,13191,94126,100672
2025-05-29 11:10:17.449,101455,15569,13198,94082,100637
2025-05-29 11:10:17.461,101457,15570,13200,94052,100611
2025-05-29 11:10:17.469,101448,15580,13208,94050,100607
2025-05-29 11:10:17.480,101460,15574,13215,94031,100573
2025-05-29 11:10:17.504,101443,15575,13215,94030,100592
2025-05-29 11:10:17.506,101467,15588,13219,94028,100583
2025-05-29 11:10:17.509,101471,15597,13225,94044,100592
2025-05-29 11:10:17.521,101487,15606,13225,94064,100597
2025-05-29 11:10:17.528,101515,15618,13242,94081,100616
2025-05-29 11:10:17.540,101547,15616,13249,94108,100638
2025-05-29 11:10:17.549,101554,15635,13252,94146,100667
2025-05-29 11:10:17.570,101581,15644,13262,94170,100690
2025-05-29 11:10:17.571,101596,15660,13274,94217,100730
2025-05-29 11:10:17.581,101632,15666,13281,94266,100737
2025-05-29 11:10:17.589,101640,15673,13290,94295,100779
2025-05-29 11:10:17.601,101666,15688,13310,94339,100811
2025-05-29 11:10:17.609,101696,15688,13298,94370,100830
2025-05-29 11:10:17.638,101720,15706,13308,94411,100876
2025-05-29 11:10:17.640,101724,15715,13323,94441,100887
2025-05-29 11:10:17.642,101738,15727,13323,94462,100912
2025-05-29 11:10:17.649,101751,15727,13333,94502,100911
2025-05-29 11:10:17.662,101764,15738,13334,94506,100939
2025-05-29 11:10:17.669,101767,15743,13341,94549,100948
2025-05-29 11:10:17.681,101780,15742,13338,94581,100944
2025-05-29 11:10:17.705,101793,15740,13339,94586,100990
2025-05-29 11:10:17.706,101800,15733,13330,94628,100988
2025-05-29 11:10:17.709,101788,15734,13322,94665,101017
2025-05-29 11:10:17.721,101789,15723,13314,94703,101006
2025-05-29 11:10:17.729,101792,15702,13303,94696,101010
2025-05-29 11:10:17.740,101763,15688,13287,94698,101016
2025-05-29 11:10:17.749,101749,15678,13272,94671,101000
2025-05-29 11:10:17.772,101724,15662,13258,94654,100979
2025-05-29 11:10:17.774,101688,15642,13241,94627,100951
2025-05-29 11:10:17.781,101659,15620,13222,94586,100919
2025-05-29 11:10:17.793,101625,15611,13211,94529,100871
2025-05-29 11:10:17.801,101607,15587,13187,94493,100848
2025-05-29 11:10:17.813,101581,15586,13192,94444,100809
2025-05-29 11:10:17.821,101561,15571,13170,94398,100783
2025-05-29 11:10:17.839,101549,15554,13178,94354,100757
2025-05-29 11:10:17.840,101542,15556,13160,94338,100728
2025-05-29 11:10:17.853,101517,15541,13159,94326,100722
2025-05-29 11:10:17.861,101517,15542,13161,94313,100719
2025-05-29 11:10:17.873,101525,15536,13153,94315,100705
2025-05-29 11:10:17.880,101535,15512,13151,94339,100717
2025-05-29 11:10:17.903,101543,15520,13160,94345,100728
2025-05-29 11:10:17.905,101569,15521,13142,94361,100719
2025-05-29 11:10:17.913,101582,15524,13138,94388,100748
2025-05-29 11:10:17.921,101592,15522,13139,94416,100764
2025-05-29 11:10:17.933,101626,15522,13135,94444,100792
2025-05-29 11:10:17.940,101628,15521,13160,94461,100799
2025-05-29 11:10:17.971,101641,15530,13153,94486,100822
2025-05-29 11:10:17.973,101645,15532,13153,94509,100835
2025-05-29 11:10:17.974,101654,15534,13158,94538,100861
2025-05-29 11:10:17.982,101664,15534,13163,94563,100873
2025-05-29 11:10:17.993,101679,15531,13153,94570,100886
2025-05-29 11:10:18.000,101671,15524,13162,94585,100883
2025-05-29 11:10:18.012,101673,15530,13155,94601,100906
2025-05-29 11:10:18.038,101648,15538,13161,94583,100896
2025-05-29 11:10:18.039,101642,15518,13165,94585,100899
2025-05-29 11:10:18.041,101613,15527,13148,94566,100891
2025-05-29 11:10:18.053,101631,15504,13147,94558,100885
2025-05-29 11:10:18.061,101629,15516,13154,94542,100866
2025-05-29 11:10:18.072,101596,15509,13160,94544,100860
2025-05-29 11:10:18.081,101586,15512,13136,94526,100857
2025-05-29 11:10:18.104,101575,15507,13140,94516,100835
2025-05-29 11:10:18.105,101577,15509,13144,94487,100842
2025-05-29 11:10:18.113,101551,15509,13149,94498,100836
2025-05-29 11:10:18.120,101559,15512,13147,94501,100828
2025-05-29 11:10:18.133,101556,15514,13152,94498,100828
2025-05-29 11:10:18.140,101555,15523,13144,94502,100833
2025-05-29 11:10:18.153,101559,15511,13150,94493,100834
2025-05-29 11:10:18.172,101544,15517,13160,94491,100821
2025-05-29 11:10:18.174,101546,15518,13154,94482,100819
2025-05-29 11:10:18.184,101559,15519,13162,94478,100797
2025-05-29 11:10:18.193,101542,15521,13165,94466,100802
2025-05-29 11:10:18.205,101560,15518,13162,94467,100799
2025-05-29 11:10:18.213,101536,15523,13163,94439,100795
2025-05-29 11:10:18.237,101552,15519,13169,94442,100791
2025-05-29 11:10:18.239,101507,15526,13169,94416,100780
2025-05-29 11:10:18.245,101535,15533,13182,94408,100773
2025-05-29 11:10:18.253,101533,15528,13183,94400,100770
2025-05-29 11:10:18.264,101518,15534,13177,94393,100747
2025-05-29 11:10:18.272,101519,15539,13185,94373,100755
2025-05-29 11:10:18.285,101538,15548,13185,94379,100749
2025-05-29 11:10:18.305,101541,15551,13194,94399,100772
2025-05-29 11:10:18.307,101538,15556,13201,94403,100786
2025-05-29 11:10:18.312,101553,15573,13208,94399,100778
2025-05-29 11:10:18.324,101570,15579,13208,94409,100784
2025-05-29 11:10:18.333,101556,15591,13230,94430,100788
2025-05-29 11:10:18.344,101581,15587,13225,94446,100810
2025-05-29 11:10:18.352,101590,15605,13230,94472,100816
2025-05-29 11:10:18.372,101595,15603,13246,94477,100835
2025-05-29 11:10:18.373,101616,15605,13246,94484,100843
2025-05-29 11:10:18.385,101614,15609,13239,94498,100857
2025-05-29 11:10:18.393,101624,15612,13254,94499,100865
2025-05-29 11:10:18.405,101614,15622,13255,94512,100862
2025-05-29 11:10:18.412,101632,15614,13267,94512,100866
2025-05-29 11:10:18.437,101609,15619,13268,94525,100870
2025-05-29 11:10:18.438,101634,15620,13268,94529,100870
2025-05-29 11:10:18.444,101636,15642,13276,94531,100874
2025-05-29 11:10:18.453,101632,15638,13282,94538,100879
2025-05-29 11:10:18.464,101651,15645,13297,94543,100902
2025-05-29 11:10:18.472,101627,15656,13286,94548,100889
2025-05-29 11:10:18.485,101644,15662,13299,94535,100900
2025-05-29 11:10:18.504,101627,15667,13301,94535,100896
2025-05-29 11:10:18.507,101620,15687,13300,94531,100871
2025-05-29 11:10:18.512,101628,15687,13304,94522,100863
2025-05-29 11:10:18.525,101626,15723,13301,94508,100858
2025-05-29 11:10:18.532,101612,15699,13315,94487,100869
2025-05-29 11:10:18.544,101605,15711,13320,94493,100856
2025-05-29 11:10:18.573,101613,15692,13317,94475,100830
2025-05-29 11:10:18.575,101604,15702,13321,94472,100834
2025-05-29 11:10:18.576,101610,15688,13311,94476,100836
2025-05-29 11:10:18.585,101598,15687,13310,94473,100822
2025-05-29 11:10:18.593,101611,15684,13301,94487,100832
2025-05-29 11:10:18.604,101615,15692,13296,94484,100828
2025-05-29 11:10:18.617,101611,15668,13298,94497,100824
2025-05-29 11:10:18.639,101610,15654,13281,94491,100840
2025-05-29 11:10:18.640,101617,15646,13284,94513,100818
2025-05-29 11:10:18.644,101613,15637,13258,94512,100818
2025-05-29 11:10:18.657,101618,15622,13264,94478,100821
2025-05-29 11:10:18.664,101614,15623,13241,94498,100817
2025-05-29 11:10:18.677,101596,15605,13231,94507,100819
2025-05-29 11:10:18.685,101590,15603,13227,94497,100821
2025-05-29 11:10:18.705,101612,15591,13211,94509,100821
2025-05-29 11:10:18.706,101606,15585,13222,94521,100825
2025-05-29 11:10:18.716,101611,15573,13203,94511,100813
2025-05-29 11:10:18.725,101613,15564,13189,94510,100818
2025-05-29 11:10:18.736,101607,15577,13183,94521,100824
2025-05-29 11:10:18.745,101604,15574,13189,94516,100811
2025-05-29 11:10:18.772,101607,15555,13194,94530,100799
2025-05-29 11:10:18.774,101608,15550,13171,94511,100813
2025-05-29 11:10:18.777,101595,15562,13179,94516,100823
2025-05-29 11:10:18.789,101587,15543,13174,94514,100824
2025-05-29 11:10:18.790,101587,15543,13174,94514,100824
2025-05-29 11:10:18.796,101568,15538,13194,94502,100809
2025-05-29 11:10:18.805,101567,15540,13182,94504,100804
2025-05-29 11:10:18.816,101564,15531,13191,94494,100784
2025-05-29 11:10:18.842,101549,15531,13176,94477,100768
2025-05-29 11:10:18.844,101558,15532,13185,94469,100772
2025-05-29 11:10:18.846,101535,15527,13177,94461,100762
2025-05-29 11:10:18.857,101540,15531,13180,94444,100758
2025-05-29 11:10:18.865,101540,15532,13176,94441,100744
2025-05-29 11:10:18.877,101540,15527,13177,94445,100751
2025-05-29 11:10:18.884,101521,15524,13172,94429,100747
2025-05-29 11:10:18.915,101521,15522,13181,94442,100748
2025-05-29 11:10:18.916,101519,15522,13178,94420,100753
2025-05-29 11:10:18.917,101522,15523,13177,94422,100740
2025-05-29 11:10:18.926,101524,15523,13166,94430,100749
2025-05-29 11:10:18.936,101512,15524,13173,94411,100716
2025-05-29 11:10:18.945,101503,15522,13170,94398,100706
2025-05-29 11:10:18.956,101500,15520,13174,94378,100710
2025-05-29 11:10:18.979,101503,15519,13168,94370,100691
2025-05-29 11:10:18.981,101493,15518,13170,94349,100686
2025-05-29 11:10:18.989,101483,15518,13171,94336,100674
2025-05-29 11:10:18.996,101464,15528,13176,94327,100658
2025-05-29 11:10:19.008,101476,15527,13177,94319,100662
2025-05-29 11:10:19.016,101462,15526,13183,94291,100663
2025-05-29 11:10:19.046,101479,15524,13186,94311,100642
2025-05-29 11:10:19.047,101479,15540,13200,94309,100650
2025-05-29 11:10:19.049,101464,15534,13191,94292,100641
2025-05-29 11:10:19.056,101468,15534,13191,94283,100654
2025-05-29 11:10:19.068,101472,15542,13189,94282,100651
2025-05-29 11:10:19.076,101454,15545,13200,94274,100641
2025-05-29 11:10:19.088,101465,15546,13197,94275,100630
2025-05-29 11:10:19.113,101454,15558,13203,94269,100631
2025-05-29 11:10:19.114,101467,15559,13205,94256,100646
2025-05-29 11:10:19.116,101452,15553,13217,94259,100633
2025-05-29 11:10:19.129,101458,15568,13217,94243,100643
2025-05-29 11:10:19.136,101462,15587,13224,94261,100649
2025-05-29 11:10:19.149,101478,15585,13235,94265,100653
2025-05-29 11:10:19.156,101467,15587,13225,94256,100659
2025-05-29 11:10:19.178,101484,15591,13232,94265,100666
2025-05-29 11:10:19.179,101481,15601,13244,94253,100657
2025-05-29 11:10:19.189,101480,15606,13242,94242,100651
2025-05-29 11:10:19.197,101489,15618,13248,94247,100662
2025-05-29 11:10:19.208,101474,15615,13256,94260,100663
2025-05-29 11:10:19.216,101473,15627,13266,94260,100674
2025-05-29 11:10:19.242,101485,15625,13271,94262,100667
2025-05-29 11:10:19.244,101484,15635,13268,94236,100656
2025-05-29 11:10:19.248,101480,15647,13284,94233,100652
2025-05-29 11:10:19.257,101476,15646,13283,94233,100648
2025-05-29 11:10:19.268,101473,15648,13286,94206,100655
2025-05-29 11:10:19.276,101481,15653,13291,94221,100636
2025-05-29 11:10:19.288,101478,15669,13297,94195,100653
2025-05-29 11:10:19.308,101474,15674,13306,94196,100644
2025-05-29 11:10:19.310,101486,15682,13301,94210,100647
2025-05-29 11:10:19.317,101479,15691,13308,94185,100665
2025-05-29 11:10:19.329,101474,15692,13319,94192,100639
2025-05-29 11:10:19.336,101469,15700,13327,94163,100649
2025-05-29 11:10:19.348,101464,15712,13326,94165,100659
2025-05-29 11:10:19.356,101461,15710,13332,94169,100642
2025-05-29 11:10:19.375,101474,15722,13332,94154,100644
2025-05-29 11:10:19.376,101454,15729,13342,94148,100634
2025-05-29 11:10:19.389,101458,15737,13343,94141,100640
2025-05-29 11:10:19.401,101466,15741,13352,94128,100617
2025-05-29 11:10:19.408,101472,15745,13352,94131,100624
2025-05-29 11:10:19.420,101470,15748,13363,94117,100620
2025-05-29 11:10:19.441,101463,15749,13360,94128,100608
2025-05-29 11:10:19.442,101459,15745,13355,94111,100590
2025-05-29 11:10:19.448,101438,15742,13347,94138,100599
2025-05-29 11:10:19.460,101455,15740,13347,94117,100605
2025-05-29 11:10:19.470,101454,15724,13333,94119,100595
2025-05-29 11:10:19.480,101454,15721,13335,94101,100571
2025-05-29 11:10:19.488,101460,15702,13321,94105,100570
2025-05-29 11:10:19.507,101441,15699,13314,94108,100575
2025-05-29 11:10:19.509,101436,15693,13316,94092,100581
2025-05-29 11:10:19.521,101441,15687,13306,94103,100577
2025-05-29 11:10:19.528,101448,15670,13289,94093,100568
2025-05-29 11:10:19.540,101442,15671,13286,94102,100568
2025-05-29 11:10:19.549,101435,15664,13277,94100,100560
2025-05-29 11:10:19.573,101440,15669,13278,94093,100587
2025-05-29 11:10:19.574,101437,15660,13270,94106,100570
2025-05-29 11:10:19.580,101436,15657,13267,94114,100590
2025-05-29 11:10:19.588,101445,15671,13270,94109,100586
2025-05-29 11:10:19.600,101443,15651,13266,94113,100563
2025-05-29 11:10:19.609,101437,15646,13264,94104,100575
2025-05-29 11:10:19.621,101443,15643,13257,94122,100557
2025-05-29 11:10:19.639,101442,15641,13264,94127,100574
2025-05-29 11:10:19.641,101447,15651,13266,94122,100551
2025-05-29 11:10:19.649,101433,15643,13260,94116,100561
2025-05-29 11:10:19.661,101439,15648,13266,94105,100566
2025-05-29 11:10:19.668,101439,15644,13261,94118,100576
2025-05-29 11:10:19.680,101432,15648,13269,94107,100570
2025-05-29 11:10:19.706,101435,15644,13271,94088,100556
2025-05-29 11:10:19.708,101421,15646,13266,94094,100569
2025-05-29 11:10:19.709,101422,15649,13269,94072,100569
2025-05-29 11:10:19.721,101421,15641,13272,94079,100563
2025-05-29 11:10:19.728,101414,15646,13270,94068,100577
2025-05-29 11:10:19.740,101419,15648,13273,94076,100561
2025-05-29 11:10:19.748,101421,15648,13275,94078,100568
2025-05-29 11:10:19.772,101404,15658,13275,94083,100566
2025-05-29 11:10:19.774,101418,15649,13278,94076,100570
2025-05-29 11:10:19.780,101427,15654,13278,94083,100558
2025-05-29 11:10:19.793,101428,15651,13276,94096,100572
2025-05-29 11:10:19.800,101433,15654,13287,94087,100565
2025-05-29 11:10:19.813,101439,15656,13283,94076,100579
2025-05-29 11:10:19.821,101441,15657,13290,94117,100592
2025-05-29 11:10:19.840,101452,15660,13297,94116,100581
2025-05-29 11:10:19.841,101450,15665,13291,94134,100610
2025-05-29 11:10:19.853,101454,15669,13293,94145,100623
2025-05-29 11:10:19.860,101454,15668,13301,94160,100617
2025-05-29 11:10:19.872,101458,15679,13299,94141,100615
2025-05-29 11:10:19.880,101455,15678,13307,94146,100640
2025-05-29 11:10:19.906,101464,15685,13311,94165,100636
2025-05-29 11:10:19.908,101448,15689,13305,94153,100627
2025-05-29 11:10:19.912,101460,15688,13304,94147,100637
2025-05-29 11:10:19.921,101454,15699,13310,94149,100625
2025-05-29 11:10:19.932,101448,15693,13324,94148,100659
2025-05-29 11:10:19.940,101448,15697,13329,94140,100635
2025-05-29 11:10:19.952,101454,15706,13336,94142,100645
2025-05-29 11:10:19.974,101457,15708,13340,94159,100657
2025-05-29 11:10:19.975,101468,15720,13351,94162,100663
2025-05-29 11:10:19.981,101465,15735,13354,94168,100671
2025-05-29 11:10:19.992,101471,15745,13353,94195,100674
2025-05-29 11:10:20.001,101501,15746,13361,94206,100694
2025-05-29 11:10:20.013,101486,15750,13370,94214,100698
2025-05-29 11:10:20.020,101494,15771,13382,94230,100716
2025-05-29 11:10:20.039,101497,15764,13383,94240,100723
2025-05-29 11:10:20.041,101505,15776,13386,94250,100725
2025-05-29 11:10:20.052,101512,15778,13393,94253,100743
2025-05-29 11:10:20.060,101504,15787,13402,94280,100741
2025-05-29 11:10:20.072,101509,15794,13405,94286,100753
2025-05-29 11:10:20.080,101515,15793,13406,94280,100756
2025-05-29 11:10:20.105,101503,15808,13413,94279,100755
2025-05-29 11:10:20.107,101493,15816,13415,94279,100751
2025-05-29 11:10:20.112,101497,15817,13430,94290,100759
2025-05-29 11:10:20.120,101501,15824,13429,94275,100759
2025-05-29 11:10:20.132,101483,15826,13438,94272,100743
2025-05-29 11:10:20.140,101502,15840,13438,94273,100767
2025-05-29 11:10:20.152,101491,15843,13442,94265,100757
2025-05-29 11:10:20.173,101489,15847,13447,94250,100735
2025-05-29 11:10:20.174,101493,15850,13443,94264,100739
2025-05-29 11:10:20.184,101487,15848,13437,94266,100735
2025-05-29 11:10:20.192,101501,15855,13452,94265,100718
2025-05-29 11:10:20.201,101484,15840,13444,94279,100741
2025-05-29 11:10:20.212,101486,15845,13434,94281,100730
2025-05-29 11:10:20.240,101492,15827,13435,94278,100736
2025-05-29 11:10:20.241,101477,15832,13415,94282,100724
2025-05-29 11:10:20.244,101491,15804,13414,94280,100706
2025-05-29 11:10:20.253,101471,15788,13416,94280,100723
2025-05-29 11:10:20.264,101461,15780,13393,94268,100702
2025-05-29 11:10:20.273,101485,15777,13386,94274,100695
2025-05-29 11:10:20.284,101467,15771,13377,94275,100696
2025-05-29 11:10:20.308,101470,15752,13367,94283,100671
2025-05-29 11:10:20.310,101476,15751,13361,94286,100696
2025-05-29 11:10:20.313,101473,15749,13357,94287,100707
2025-05-29 11:10:20.325,101485,15745,13357,94310,100709
2025-05-29 11:10:20.332,101473,15749,13346,94323,100716
2025-05-29 11:10:20.345,101475,15734,13344,94337,100716
2025-05-29 11:10:20.352,101484,15724,13349,94344,100709
2025-05-29 11:10:20.379,101505,15731,13346,94350,100723
2025-05-29 11:10:20.381,101495,15724,13341,94376,100740
2025-05-29 11:10:20.384,101493,15718,13347,94373,100728
2025-05-29 11:10:20.397,101485,15722,13335,94383,100736
2025-05-29 11:10:20.399,101485,15722,13335,94383,100736
2025-05-29 11:10:20.404,101488,15729,13336,94409,100751
2025-05-29 11:10:20.413,101471,15721,13334,94408,100753
2025-05-29 11:10:20.425,101489,15717,13329,94416,100751
2025-05-29 11:10:20.445,101482,15727,13336,94424,100768
2025-05-29 11:10:20.447,101482,15717,13332,94434,100767
2025-05-29 11:10:20.453,101461,15714,13338,94438,100752
2025-05-29 11:10:20.464,101457,15720,13345,94431,100768
2025-05-29 11:10:20.473,101466,15717,13333,94437,100761
2025-05-29 11:10:20.484,101461,15723,13335,94443,100748
2025-05-29 11:10:20.492,101472,15718,13342,94438,100749
2025-05-29 11:10:20.511,101448,15717,13326,94429,100731
2025-05-29 11:10:20.513,101445,15720,13320,94416,100721
2025-05-29 11:10:20.524,101449,15711,13336,94413,100741
2025-05-29 11:10:20.532,101445,15709,13335,94428,100736
2025-05-29 11:10:20.545,101441,15728,13339,94425,100735
2025-05-29 11:10:20.552,101452,15715,13335,94416,100733
2025-05-29 11:10:20.582,101435,15718,13339,94413,100745
2025-05-29 11:10:20.583,101437,15724,13340,94419,100731
2025-05-29 11:10:20.585,101429,15711,13342,94412,100723
2025-05-29 11:10:20.596,101453,15722,13345,94424,100723
2025-05-29 11:10:20.605,101433,15714,13342,94398,100733
2025-05-29 11:10:20.617,101422,15719,13331,94419,100723
2025-05-29 11:10:20.624,101435,15715,13349,94399,100728
2025-05-29 11:10:20.650,101433,15721,13342,94405,100714
2025-05-29 11:10:20.652,101428,15726,13351,94420,100728
2025-05-29 11:10:20.657,101430,15735,13348,94401,100715
2025-05-29 11:10:20.665,101446,15739,13363,94406,100736
2025-05-29 11:10:20.676,101430,15737,13360,94412,100736
2025-05-29 11:10:20.685,101439,15742,13363,94413,100736
2025-05-29 11:10:20.695,101426,15750,13374,94414,100722
2025-05-29 11:10:20.717,101442,15762,13373,94430,100723
2025-05-29 11:10:20.718,101444,15752,13378,94431,100740
2025-05-29 11:10:20.724,101443,15759,13381,94410,100748
2025-05-29 11:10:20.736,101452,15764,13385,94427,100742
2025-05-29 11:10:20.744,101473,15776,13395,94434,100731
2025-05-29 11:10:20.756,101452,15787,13398,94448,100754
2025-05-29 11:10:20.764,101450,15787,13410,94467,100764
2025-05-29 11:10:20.783,101473,15795,13404,94478,100775
2025-05-29 11:10:20.784,101483,15799,13412,94474,100788
2025-05-29 11:10:20.797,101487,15800,13419,94480,100799
2025-05-29 11:10:20.805,101472,15813,13418,94472,100788
2025-05-29 11:10:20.816,101480,15809,13432,94499,100780
2025-05-29 11:10:20.825,101491,15819,13429,94471,100786
2025-05-29 11:10:20.847,101481,15829,13435,94478,100791
2025-05-29 11:10:20.849,101481,15832,13442,94487,100784
2025-05-29 11:10:20.856,101484,15833,13445,94477,100792
2025-05-29 11:10:20.865,101488,15831,13450,94477,100779
2025-05-29 11:10:20.876,101482,15848,13454,94483,100776
2025-05-29 11:10:20.884,101498,15852,13461,94472,100795
2025-05-29 11:10:20.896,101488,15849,13463,94475,100790
2025-05-29 11:10:20.914,101485,15868,13468,94482,100796
2025-05-29 11:10:20.916,101504,15874,13482,94477,100798
2025-05-29 11:10:20.925,101506,15884,13483,94492,100790
2025-05-29 11:10:20.937,101501,15887,13485,94483,100804
2025-05-29 11:10:20.945,101508,15903,13483,94481,100806
2025-05-29 11:10:20.956,101511,15899,13499,94481,100798
2025-05-29 11:10:20.982,101516,15915,13506,94469,100801
2025-05-29 11:10:20.984,101511,15909,13509,94492,100788
2025-05-29 11:10:20.985,101518,15919,13504,94471,100800
2025-05-29 11:10:20.996,101520,15914,13511,94486,100793
2025-05-29 11:10:21.005,101523,15908,13509,94482,100793
2025-05-29 11:10:21.016,101518,15919,13505,94474,100808
2025-05-29 11:10:21.028,101528,15914,13511,94484,100810
2025-05-29 11:10:21.052,101534,15904,13493,94498,100807
2025-05-29 11:10:21.054,101522,15909,13483,94498,100791
2025-05-29 11:10:21.056,101533,15887,13478,94500,100806
2025-05-29 11:10:21.068,101532,15880,13474,94506,100800
2025-05-29 11:10:21.076,101533,15864,13464,94511,100790
2025-05-29 11:10:21.088,101537,15863,13454,94510,100799
2025-05-29 11:10:21.095,101530,15844,13442,94518,100792
2025-05-29 11:10:21.117,101535,15831,13430,94503,100789
2025-05-29 11:10:21.118,101534,15829,13426,94512,100789
2025-05-29 11:10:21.128,101521,15821,13412,94515,100802
2025-05-29 11:10:21.136,101531,15818,13407,94531,100801
2025-05-29 11:10:21.148,101529,15807,13402,94517,100791
2025-05-29 11:10:21.156,101526,15803,13403,94527,100805
2025-05-29 11:10:21.185,101522,15795,13389,94527,100794
2025-05-29 11:10:21.187,101525,15794,13387,94542,100797
2025-05-29 11:10:21.188,101533,15798,13387,94550,100814
2025-05-29 11:10:21.197,101541,15784,13392,94531,100813
2025-05-29 11:10:21.209,101540,15774,13375,94549,100808
2025-05-29 11:10:21.216,101519,15787,13372,94566,100812
2025-05-29 11:10:21.229,101520,15778,13366,94573,100803
2025-05-29 11:10:21.254,101522,15768,13359,94556,100808
2025-05-29 11:10:21.256,101504,15764,13369,94545,100802
2025-05-29 11:10:21.258,101509,15760,13353,94549,100796
2025-05-29 11:10:21.269,101497,15759,13367,94537,100805
2025-05-29 11:10:21.276,101482,15761,13352,94530,100805
2025-05-29 11:10:21.288,101479,15758,13351,94513,100811
2025-05-29 11:10:21.296,101476,15761,13351,94528,100794
2025-05-29 11:10:21.325,101475,15770,13362,94504,100787
2025-05-29 11:10:21.326,101472,15759,13355,94501,100786
2025-05-29 11:10:21.328,101470,15759,13349,94511,100787
2025-05-29 11:10:21.336,101461,15759,13351,94497,100788
2025-05-29 11:10:21.348,101448,15764,13348,94502,100778
2025-05-29 11:10:21.357,101456,15743,13341,94503,100777
2025-05-29 11:10:21.368,101442,15759,13347,94474,100754
2025-05-29 11:10:21.392,101439,15747,13352,94465,100754
2025-05-29 11:10:21.393,101425,15753,13349,94450,100750
2025-05-29 11:10:21.400,101425,15754,13338,94439,100748
2025-05-29 11:10:21.409,101411,15741,13345,94426,100737
2025-05-29 11:10:21.421,101415,15749,13340,94421,100736
2025-05-29 11:10:21.429,101409,15747,13336,94422,100713
2025-05-29 11:10:21.440,101406,15746,13345,94419,100725
2025-05-29 11:10:21.458,101427,15756,13352,94415,100731
2025-05-29 11:10:21.460,101437,15753,13350,94425,100743
2025-05-29 11:10:21.469,101422,15764,13335,94434,100732
2025-05-29 11:10:21.480,101435,15762,13344,94437,100746
2025-05-29 11:10:21.489,101415,15765,13347,94436,100736
2025-05-29 11:10:21.501,101442,15764,13354,94437,100747
2025-05-29 11:10:21.526,101424,15772,13352,94435,100751
2025-05-29 11:10:21.527,101450,15775,13350,94422,100752
2025-05-29 11:10:21.528,101433,15783,13366,94420,100746
2025-05-29 11:10:21.541,101422,15781,13360,94424,100746
2025-05-29 11:10:21.548,101423,15798,13373,94403,100737
2025-05-29 11:10:21.560,101430,15794,13377,94404,100745
2025-05-29 11:10:21.569,101439,15800,13381,94415,100768
2025-05-29 11:10:21.592,101443,15803,13385,94409,100744
2025-05-29 11:10:21.594,101447,15808,13383,94423,100745
2025-05-29 11:10:21.601,101448,15811,13387,94417,100765
2025-05-29 11:10:21.608,101456,15821,13400,94438,100766
2025-05-29 11:10:21.621,101460,15835,13398,94422,100760
2025-05-29 11:10:21.628,101478,15832,13403,94418,100764
2025-05-29 11:10:21.640,101467,15831,13414,94432,100778
2025-05-29 11:10:21.660,101455,15835,13405,94420,100774
2025-05-29 11:10:21.661,101462,15848,13409,94429,100774
2025-05-29 11:10:21.669,101466,15844,13418,94435,100785
2025-05-29 11:10:21.680,101465,15864,13426,94428,100780
2025-05-29 11:10:21.689,101465,15862,13430,94422,100770
2025-05-29 11:10:21.700,101432,15876,13420,94416,100758
2025-05-29 11:10:21.708,101475,15872,13424,94406,100778
2025-05-29 11:10:21.727,101463,15866,13437,94395,100768
2025-05-29 11:10:21.729,101465,15888,13441,94390,100761
2025-05-29 11:10:21.741,101469,15875,13445,94402,100781
2025-05-29 11:10:21.748,101486,15905,13453,94397,100770
2025-05-29 11:10:21.760,101486,15904,13458,94405,100779
2025-05-29 11:10:21.772,101487,15908,13468,94421,100780
2025-05-29 11:10:21.792,101514,15906,13468,94410,100805
2025-05-29 11:10:21.793,101503,15929,13475,94422,100792
2025-05-29 11:10:21.800,101502,15938,13479,94412,100816
2025-05-29 11:10:21.812,101509,15939,13488,94426,100813
2025-05-29 11:10:21.820,101522,15945,13488,94420,100798
2025-05-29 11:10:21.831,101521,15965,13489,94434,100819
2025-05-29 11:10:21.840,101515,15967,13500,94413,100806
2025-05-29 11:10:21.860,101498,15971,13502,94406,100808
2025-05-29 11:10:21.861,101503,15968,13514,94397,100799
2025-05-29 11:10:21.872,101511,15977,13509,94393,100799
2025-05-29 11:10:21.880,101522,15966,13516,94408,100794
2025-05-29 11:10:21.893,101525,15973,13500,94391,100805
2025-05-29 11:10:21.900,101531,15962,13494,94404,100784
2025-05-29 11:10:21.926,101530,15953,13492,94407,100777
2025-05-29 11:10:21.928,101530,15948,13484,94412,100770
2025-05-29 11:10:21.933,101524,15940,13474,94393,100775
2025-05-29 11:10:21.940,101514,15928,13461,94415,100774
2025-05-29 11:10:21.953,101515,15911,13456,94396,100762
2025-05-29 11:10:21.960,101498,15905,13450,94403,100760
2025-05-29 11:10:21.972,101497,15902,13439,94390,100753
2025-05-29 11:10:21.992,101500,15890,13427,94389,100749
2025-05-29 11:10:21.994,101498,15891,13422,94369,100748
2025-05-29 11:10:22.005,101493,15877,13406,94382,100748
2025-05-29 11:10:22.006,101493,15877,13406,94382,100748
2025-05-29 11:10:22.012,101492,15867,13392,94384,100743
2025-05-29 11:10:22.021,101486,15866,13380,94393,100754
2025-05-29 11:10:22.032,101496,15851,13391,94393,100756
2025-05-29 11:10:22.040,101497,15867,13387,94393,100755
2025-05-29 11:10:22.060,101488,15851,13384,94411,100738
2025-05-29 11:10:22.061,101484,15847,13382,94400,100750
2025-05-29 11:10:22.072,101486,15854,13382,94390,100752
2025-05-29 11:10:22.080,101468,15844,13384,94380,100743
2025-05-29 11:10:22.092,101477,15835,13368,94377,100727
2025-05-29 11:10:22.100,101437,15837,13362,94374,100733
2025-05-29 11:10:22.126,101448,15843,13353,94349,100716
2025-05-29 11:10:22.127,101444,15828,13362,94353,100718
2025-05-29 11:10:22.133,101428,15829,13354,94347,100714
2025-05-29 11:10:22.140,101428,15832,13347,94326,100705
2025-05-29 11:10:22.152,101411,15838,13355,94313,100674
2025-05-29 11:10:22.160,101415,15835,13345,94310,100668
2025-05-29 11:10:22.173,101417,15830,13351,94287,100684
2025-05-29 11:10:22.191,101398,15824,13344,94274,100694
2025-05-29 11:10:22.193,101400,15833,13362,94265,100656
2025-05-29 11:10:22.204,101395,15826,13355,94255,100657
2025-05-29 11:10:22.213,101394,15828,13347,94267,100637
2025-05-29 11:10:22.224,101378,15832,13351,94255,100636
2025-05-29 11:10:22.233,101375,15826,13337,94237,100637
2025-05-29 11:10:22.257,101355,15826,13336,94219,100626
2025-05-29 11:10:22.259,101354,15825,13342,94193,100638
2025-05-29 11:10:22.265,101349,15825,13335,94191,100588
2025-05-29 11:10:22.272,101348,15829,13336,94168,100588
2025-05-29 11:10:22.285,101341,15821,13336,94131,100582
2025-05-29 11:10:22.292,101333,15826,13332,94132,100572
2025-05-29 11:10:22.304,101346,15837,13350,94095,100573
2025-05-29 11:10:22.323,101353,15836,13338,94109,100567
2025-05-29 11:10:22.325,101332,15820,13355,94109,100569
2025-05-29 11:10:22.333,101357,15840,13355,94119,100570
2025-05-29 11:10:22.343,101344,15840,13356,94112,100569
2025-05-29 11:10:22.353,101339,15840,13360,94109,100568
2025-05-29 11:10:22.364,101345,15840,13354,94098,100564
2025-05-29 11:10:22.371,101344,15841,13355,94087,100565
2025-05-29 11:10:22.391,101343,15864,13361,94086,100561
2025-05-29 11:10:22.392,101358,15855,13372,94077,100559
2025-05-29 11:10:22.405,101358,15868,13366,94076,100566
2025-05-29 11:10:22.412,101351,15873,13380,94060,100555
2025-05-29 11:10:22.424,101359,15874,13376,94073,100563
2025-05-29 11:10:22.432,101365,15882,13383,94068,100577
2025-05-29 11:10:22.459,101359,15899,13393,94078,100558
2025-05-29 11:10:22.460,101377,15890,13392,94082,100563
2025-05-29 11:10:22.465,101376,15916,13398,94068,100584
2025-05-29 11:10:22.471,101360,15904,13404,94076,100566
2025-05-29 11:10:22.484,101365,15913,13403,94053,100572
2025-05-29 11:10:22.493,101372,15912,13411,94064,100582
2025-05-29 11:10:22.504,101369,15924,13414,94055,100583
2025-05-29 11:10:22.525,101362,15930,13417,94047,100587
2025-05-29 11:10:22.526,101370,15935,13418,94024,100573
2025-05-29 11:10:22.532,101371,15935,13423,94030,100566
2025-05-29 11:10:22.544,101367,15943,13430,94026,100563
2025-05-29 11:10:22.552,101367,15952,13436,94018,100565
2025-05-29 11:10:22.564,101357,15961,13437,93999,100562
2025-05-29 11:10:22.590,101353,15961,13447,94010,100562
2025-05-29 11:10:22.592,101347,15968,13446,93975,100550
2025-05-29 11:10:22.596,101345,15965,13453,93974,100538
2025-05-29 11:10:22.605,101344,15974,13459,93969,100560
2025-05-29 11:10:22.616,101348,15993,13459,93939,100557
2025-05-29 11:10:22.624,101342,15987,13454,93933,100538
2025-05-29 11:10:22.637,101353,15991,13463,93935,100529
2025-05-29 11:10:22.657,101344,16001,13469,93922,100516
2025-05-29 11:10:22.658,101355,16004,13465,93898,100534
2025-05-29 11:10:22.665,101352,16020,13481,93895,100508
2025-05-29 11:10:22.676,101340,16019,13488,93871,100508
2025-05-29 11:10:22.684,101341,16028,13487,93865,100498
2025-05-29 11:10:22.696,101344,16023,13485,93870,100492
2025-05-29 11:10:22.703,101342,16020,13478,93845,100484
2025-05-29 11:10:22.724,101351,16017,13476,93842,100483
2025-05-29 11:10:22.726,101351,16021,13483,93842,100489
2025-05-29 11:10:22.737,101356,16008,13466,93843,100483
2025-05-29 11:10:22.744,101352,16015,13468,93835,100478
2025-05-29 11:10:22.756,101356,16000,13454,93857,100474
2025-05-29 11:10:22.764,101353,15977,13446,93854,100476
2025-05-29 11:10:22.791,101346,15968,13435,93851,100480
2025-05-29 11:10:22.793,101341,15963,13424,93835,100468
2025-05-29 11:10:22.796,101352,15961,13421,93840,100484
2025-05-29 11:10:22.804,101348,15948,13408,93843,100468
2025-05-29 11:10:22.816,101352,15945,13400,93851,100462
2025-05-29 11:10:22.825,101340,15943,13398,93854,100474
2025-05-29 11:10:22.836,101337,15938,13398,93849,100477
2025-05-29 11:10:22.859,101342,15944,13397,93865,100479
2025-05-29 11:10:22.861,101349,15932,13381,93868,100503
2025-05-29 11:10:22.864,101359,15930,13381,93865,100500
2025-05-29 11:10:22.877,101363,15930,13380,93885,100506
2025-05-29 11:10:22.884,101358,15930,13387,93870,100514
2025-05-29 11:10:22.897,101366,15930,13385,93891,100522
2025-05-29 11:10:22.904,101382,15938,13382,93900,100528
2025-05-29 11:10:22.927,101379,15934,13379,93908,100540
2025-05-29 11:10:22.928,101384,15937,13376,93921,100554
2025-05-29 11:10:22.937,101390,15937,13396,93926,100533
2025-05-29 11:10:22.944,101391,15940,13394,93913,100541
2025-05-29 11:10:22.956,101380,15941,13395,93922,100559
2025-05-29 11:10:22.964,101381,15942,13386,93924,100552
2025-05-29 11:10:22.976,101391,15934,13390,93941,100559
2025-05-29 11:10:22.994,101378,15944,13385,93932,100564
2025-05-29 11:10:22.996,101384,15945,13396,93936,100567
2025-05-29 11:10:23.009,101394,15941,13394,93946,100567
2025-05-29 11:10:23.016,101395,15954,13394,93939,100581
2025-05-29 11:10:23.028,101386,15947,13399,93943,100589
2025-05-29 11:10:23.036,101394,15945,13396,93959,100581
2025-05-29 11:10:23.061,101402,15960,13395,93959,100589
2025-05-29 11:10:23.062,101408,15944,13382,93962,100599
2025-05-29 11:10:23.068,101401,15947,13394,93981,100594
2025-05-29 11:10:23.077,101400,15949,13386,93979,100609
2025-05-29 11:10:23.089,101402,15945,13391,93968,100630
2025-05-29 11:10:23.096,101404,15950,13392,93986,100608
2025-05-29 11:10:23.108,101413,15948,13390,93973,100610
2025-05-29 11:10:23.128,101404,15957,13396,93981,100611
2025-05-29 11:10:23.129,101402,15959,13393,93980,100610
2025-05-29 11:10:23.137,101403,15958,13393,93988,100630
2025-05-29 11:10:23.148,101407,15959,13398,93984,100631
2025-05-29 11:10:23.157,101413,15973,13401,94009,100644
2025-05-29 11:10:23.168,101417,15970,13395,94001,100634
2025-05-29 11:10:23.176,101421,15973,13406,94014,100626
2025-05-29 11:10:23.196,101407,15977,13405,93997,100630
2025-05-29 11:10:23.198,101422,15977,13423,94019,100636
2025-05-29 11:10:23.208,101420,15988,13404,94015,100658
2025-05-29 11:10:23.216,101426,15981,13417,94020,100646
2025-05-29 11:10:23.229,101439,15996,13422,94020,100657
2025-05-29 11:10:23.236,101442,16007,13433,94027,100674
2025-05-29 11:10:23.265,101467,16013,13432,94050,100675
2025-05-29 11:10:23.266,101453,16014,13439,94060,100689
2025-05-29 11:10:23.268,101465,16025,13452,94065,100694
2025-05-29 11:10:23.277,101469,16030,13448,94099,100714
2025-05-29 11:10:23.288,101490,16037,13458,94074,100715
2025-05-29 11:10:23.297,101480,16040,13451,94093,100716
2025-05-29 11:10:23.307,101468,16044,13454,94098,100740
2025-05-29 11:10:23.332,101492,16054,13464,94108,100747
2025-05-29 11:10:23.333,101497,16052,13459,94113,100739
2025-05-29 11:10:23.336,101500,16062,13465,94136,100751
2025-05-29 11:10:23.349,101502,16068,13463,94140,100772
2025-05-29 11:10:23.356,101505,16076,13473,94169,100770
2025-05-29 11:10:23.368,101501,16075,13485,94160,100777
2025-05-29 11:10:23.376,101521,16089,13484,94162,100776
2025-05-29 11:10:23.398,101494,16081,13485,94143,100774
2025-05-29 11:10:23.400,101509,16091,13478,94147,100782
2025-05-29 11:10:23.409,101524,16103,13491,94124,100772
2025-05-29 11:10:23.412,101524,16103,13491,94124,100772
2025-05-29 11:10:23.420,101506,16118,13499,94130,100773
2025-05-29 11:10:23.428,101515,16108,13512,94126,100766
2025-05-29 11:10:23.439,101502,16117,13508,94120,100755
2025-05-29 11:10:23.463,101487,16118,13496,94128,100780
2025-05-29 11:10:23.464,101506,16116,13496,94138,100782
2025-05-29 11:10:23.469,101514,16109,13486,94148,100783
2025-05-29 11:10:23.480,101508,16105,13489,94144,100761
2025-05-29 11:10:23.489,101515,16094,13479,94151,100764
2025-05-29 11:10:23.499,101516,16080,13459,94156,100772
2025-05-29 11:10:23.508,101527,16070,13460,94183,100769
2025-05-29 11:10:23.530,101524,16059,13446,94182,100773
2025-05-29 11:10:23.531,101520,16054,13428,94165,100764
2025-05-29 11:10:23.540,101513,16041,13420,94172,100760
2025-05-29 11:10:23.549,101521,16022,13413,94166,100771
2025-05-29 11:10:23.560,101505,16019,13400,94179,100754
2025-05-29 11:10:23.568,101493,16011,13385,94163,100762
2025-05-29 11:10:23.598,101490,16002,13393,94166,100764
2025-05-29 11:10:23.600,101475,15994,13387,94177,100746
2025-05-29 11:10:23.601,101519,15997,13371,94189,100772
2025-05-29 11:10:23.609,101486,15993,13373,94192,100756
2025-05-29 11:10:23.621,101482,15995,13363,94208,100776
2025-05-29 11:10:23.629,101481,15983,13366,94215,100780
2025-05-29 11:10:23.640,101487,15979,13358,94214,100794
2025-05-29 11:10:23.669,101503,15976,13353,94231,100782
2025-05-29 11:10:23.671,101492,15974,13358,94235,100780
2025-05-29 11:10:23.673,101485,15968,13344,94242,100782
