Timestamp,PPG1,PPG2,PPG3,PPG4,PPG5
2025-05-29 11:27:17.248,99545,13769,10649,93016,96384
2025-05-29 11:27:17.282,99525,13773,10653,92992,96382
2025-05-29 11:27:17.284,99515,13776,10652,92977,96345
2025-05-29 11:27:17.285,99482,13779,10661,92949,96346
2025-05-29 11:27:17.287,99462,13782,10655,92945,96344
2025-05-29 11:27:17.288,99435,13782,10653,92922,96323
2025-05-29 11:27:17.290,99427,13784,10658,92880,96326
2025-05-29 11:27:17.291,99390,13785,10652,92879,96319
2025-05-29 11:27:17.292,99370,13792,10644,92852,96289
2025-05-29 11:27:17.294,99350,13778,10653,92854,96279
2025-05-29 11:27:17.295,99333,13781,10647,92819,96273
2025-05-29 11:27:17.297,99331,13788,10654,92817,96263
2025-05-29 11:27:17.298,99323,13788,10647,92792,96246
2025-05-29 11:27:17.300,99323,13782,10653,92773,96250
2025-05-29 11:27:17.301,99330,13784,10645,92741,96213
2025-05-29 11:27:17.303,99340,13792,10645,92744,96202
2025-05-29 11:27:17.305,99352,13796,10646,92721,96211
2025-05-29 11:27:17.306,99377,13792,10645,92720,96199
2025-05-29 11:27:17.307,99395,13787,10644,92728,96183
2025-05-29 11:27:17.307,99433,13795,10649,92713,96188
2025-05-29 11:27:17.308,99463,13799,10648,92748,96182
2025-05-29 11:27:17.309,99525,13793,10655,92741,96173
2025-05-29 11:27:17.310,99584,13800,10655,92790,96203
2025-05-29 11:27:17.311,99639,13800,10660,92810,96198
2025-05-29 11:27:17.312,99682,13810,10672,92849,96230
2025-05-29 11:27:17.313,99721,13826,10673,92883,96245
2025-05-29 11:27:17.313,99756,13828,10684,92934,96279
2025-05-29 11:27:17.314,99783,13829,10689,92948,96304
2025-05-29 11:27:17.315,99808,13837,10689,92989,96328
2025-05-29 11:27:17.316,99819,13845,10691,93005,96320
2025-05-29 11:27:17.317,99832,13853,10699,93048,96352
2025-05-29 11:27:17.318,99843,13858,10701,93050,96345
2025-05-29 11:27:17.319,99875,13853,10703,93057,96358
2025-05-29 11:27:17.320,99910,13865,10698,93080,96369
2025-05-29 11:27:17.321,99948,13864,10703,93085,96373
2025-05-29 11:27:17.322,99983,13864,10712,93101,96373
2025-05-29 11:27:17.322,100030,13873,10713,93121,96401
2025-05-29 11:27:17.323,100066,13875,10715,93144,96398
2025-05-29 11:27:17.324,100092,13867,10719,93169,96402
2025-05-29 11:27:17.325,100155,13863,10722,93211,96413
2025-05-29 11:27:17.326,100198,13863,10718,93234,96436
2025-05-29 11:27:17.328,100218,13867,10714,93243,96425
2025-05-29 11:27:17.329,100265,13853,10717,93267,96445
2025-05-29 11:27:17.330,100297,13854,10717,93288,96448
2025-05-29 11:27:17.331,100308,13845,10715,93293,96454
2025-05-29 11:27:17.681,100329,13842,10709,93327,96458
2025-05-29 11:27:17.683,100342,13846,10708,93336,96446
2025-05-29 11:27:17.685,100361,13836,10699,93338,96482
2025-05-29 11:27:17.686,100365,13830,10704,93341,96451
2025-05-29 11:27:17.688,100382,13834,10696,93333,96462
2025-05-29 11:27:17.690,100392,13830,10688,93362,96453
2025-05-29 11:27:17.692,100392,13826,10687,93347,96469
2025-05-29 11:27:17.693,100398,13821,10690,93358,96437
2025-05-29 11:27:17.695,100406,13822,10683,93358,96460
2025-05-29 11:27:17.696,100420,13822,10681,93381,96476
2025-05-29 11:27:17.697,100443,13818,10681,93389,96475
2025-05-29 11:27:17.698,100443,13810,10677,93413,96495
2025-05-29 11:27:17.699,100463,13822,10679,93418,96498
2025-05-29 11:27:17.701,100466,13809,10683,93436,96528
2025-05-29 11:27:17.702,100462,13815,10678,93464,96508
2025-05-29 11:27:17.703,100476,13816,10671,93467,96535
2025-05-29 11:27:17.704,100485,13799,10671,93500,96532
2025-05-29 11:27:17.706,100488,13802,10675,93524,96564
2025-05-29 11:27:17.707,100501,13800,10673,93538,96559
2025-05-29 11:27:17.708,100509,13805,10674,93567,96563
2025-05-29 11:27:17.709,100515,13802,10677,93590,96566
2025-05-29 11:27:17.709,100531,13805,10679,93615,96589
2025-05-29 11:27:17.710,100541,13803,10678,93641,96588
2025-05-29 11:27:17.711,100547,13804,10675,93652,96591
2025-05-29 11:27:17.712,100555,13804,10681,93657,96593
2025-05-29 11:27:17.714,100555,13804,10681,93657,96593
2025-05-29 11:27:17.714,100577,13805,10681,93668,96609
2025-05-29 11:27:17.715,100579,13813,10680,93673,96602
2025-05-29 11:27:17.716,100587,13809,10687,93677,96615
2025-05-29 11:27:17.717,100600,13812,10688,93672,96611
2025-05-29 11:27:17.717,100621,13819,10685,93678,96606
2025-05-29 11:27:17.718,100626,13827,10701,93669,96618
2025-05-29 11:27:17.718,100633,13828,10696,93641,96591
2025-05-29 11:27:17.719,100668,13826,10709,93616,96594
2025-05-29 11:27:17.720,100668,13826,10709,93616,96594
2025-05-29 11:27:17.720,100668,13826,10709,93616,96594
2025-05-29 11:27:17.722,100721,13846,10709,93495,96493
2025-05-29 11:27:17.723,100757,13849,10712,93465,96499
2025-05-29 11:27:17.725,100767,13858,10714,93419,96477
2025-05-29 11:27:17.725,100787,13858,10720,93387,96431
2025-05-29 11:27:17.740,100809,13866,10712,93319,96391
2025-05-29 11:27:17.741,100822,13866,10709,93285,96367
2025-05-29 11:27:17.742,100856,13867,10699,93246,96337
2025-05-29 11:27:17.743,100888,13860,10701,93201,96298
2025-05-29 11:27:17.744,100938,13859,10694,93187,96264
2025-05-29 11:27:17.744,100973,13857,10700,93160,96253
2025-05-29 11:27:17.745,101015,13853,10686,93155,96222
2025-05-29 11:27:17.756,101089,13847,10688,93168,96223
2025-05-29 11:27:17.763,101137,13856,10694,93190,96207
2025-05-29 11:27:17.776,101213,13855,10704,93217,96224
2025-05-29 11:27:17.784,101273,13852,10706,93253,96250
2025-05-29 11:27:17.803,101330,13869,10715,93288,96264
2025-05-29 11:27:17.804,101377,13871,10729,93348,96299
2025-05-29 11:27:17.816,101420,13872,10724,93398,96337
2025-05-29 11:27:17.824,101454,13877,10727,93424,96363
2025-05-29 11:27:17.836,101481,13868,10719,93451,96355
2025-05-29 11:27:17.844,101511,13877,10720,93451,96344
2025-05-29 11:27:17.866,101534,13876,10708,93432,96335
2025-05-29 11:27:17.867,101602,13859,10708,93418,96320
2025-05-29 11:27:17.876,101638,13856,10700,93413,96304
2025-05-29 11:27:17.884,101686,13855,10697,93419,96292
2025-05-29 11:27:17.896,101722,13845,10695,93429,96285
2025-05-29 11:27:17.903,101765,13838,10689,93431,96277
2025-05-29 11:27:17.929,101801,13832,10668,93410,96249
2025-05-29 11:27:17.930,101833,13820,10674,93379,96222
2025-05-29 11:27:17.936,101895,13824,10662,93375,96200
2025-05-29 11:27:17.947,101934,13806,10662,93347,96183
2025-05-29 11:27:17.956,102019,13809,10670,93347,96180
2025-05-29 11:27:17.968,102083,13819,10693,93367,96191
2025-05-29 11:27:17.975,102177,13832,10704,93375,96196
2025-05-29 11:27:17.993,102283,13850,10722,93418,96230
2025-05-29 11:27:17.996,102370,13872,10751,93458,96282
2025-05-29 11:27:18.008,102486,13899,10788,93521,96330
2025-05-29 11:27:18.016,102612,13925,10822,93598,96404
2025-05-29 11:27:18.028,102770,13944,10855,93690,96482
2025-05-29 11:27:18.035,102918,13982,10896,93782,96561
2025-05-29 11:27:18.056,103084,14016,10945,93848,96610
2025-05-29 11:27:18.057,103231,14061,10999,93927,96693
2025-05-29 11:27:18.068,103300,14090,11040,94030,96809
2025-05-29 11:27:18.076,103318,14121,11077,94145,96921
2025-05-29 11:27:18.087,103243,14144,11114,94231,97009
2025-05-29 11:27:18.096,103046,14165,11117,94273,97050
2025-05-29 11:27:18.119,102681,14157,11104,94263,97068
2025-05-29 11:27:18.120,102208,14164,11046,94265,97086
2025-05-29 11:27:18.128,101681,14153,10981,94249,97081
2025-05-29 11:27:18.135,101152,14136,10920,94208,97071
2025-05-29 11:27:18.148,100656,14116,10857,94175,97072
2025-05-29 11:27:18.156,100233,14083,10809,94124,97029
2025-05-29 11:27:18.167,99909,14049,10756,94039,97000
2025-05-29 11:27:18.181,99667,14001,10712,93942,96898
2025-05-29 11:27:18.189,99535,13957,10669,93834,96837
2025-05-29 11:27:18.195,99485,13908,10635,93729,96728
2025-05-29 11:27:18.208,99513,13875,10615,93650,96647
2025-05-29 11:27:18.216,99624,13837,10592,93561,96562
2025-05-29 11:27:18.228,99769,13815,10583,93529,96500
2025-05-29 11:27:18.244,99973,13784,10568,93479,96437
2025-05-29 11:27:18.248,100185,13782,10574,93468,96409
2025-05-29 11:27:18.256,100375,13766,10582,93484,96378
2025-05-29 11:27:18.267,100565,13770,10593,93527,96379
2025-05-29 11:27:18.279,100724,13766,10608,93587,96415
2025-05-29 11:27:18.288,100858,13767,10623,93636,96434
2025-05-29 11:27:18.308,100975,13767,10626,93689,96464
2025-05-29 11:27:18.309,101047,13766,10617,93748,96504
2025-05-29 11:27:18.320,101089,13753,10609,93780,96505
2025-05-29 11:27:18.329,101121,13752,10600,93784,96494
2025-05-29 11:27:18.339,101169,13717,10589,93771,96480
2025-05-29 11:27:18.348,101237,13712,10596,93783,96455
2025-05-29 11:27:18.372,101317,13723,10607,93771,96455
2025-05-29 11:27:18.373,101450,13743,10627,93798,96477
2025-05-29 11:27:18.380,101597,13734,10662,93861,96524
2025-05-29 11:27:18.388,101774,13770,10698,93948,96585
2025-05-29 11:27:18.400,101942,13795,10734,94028,96641
2025-05-29 11:27:18.408,102051,13813,10762,94105,96716
2025-05-29 11:27:18.420,102089,13837,10790,94173,96779
2025-05-29 11:27:18.435,102081,13839,10792,94203,96836
2025-05-29 11:27:18.439,102036,13836,10791,94244,96845
2025-05-29 11:27:18.448,101955,13822,10781,94278,96880
2025-05-29 11:27:18.460,101833,13817,10764,94312,96903
2025-05-29 11:27:18.467,101696,13803,10735,94369,96944
2025-05-29 11:27:18.480,101538,13778,10718,94401,96978
2025-05-29 11:27:18.499,101409,13768,10687,94406,96997
2025-05-29 11:27:18.500,101311,13755,10672,94383,96993
2025-05-29 11:27:18.507,101248,13739,10651,94350,96975
2025-05-29 11:27:18.520,101199,13728,10636,94326,96944
2025-05-29 11:27:18.531,101183,13718,10628,94319,96936
2025-05-29 11:27:18.540,101146,13720,10633,94335,96953
2025-05-29 11:27:18.562,101148,13720,10643,94404,97004
2025-05-29 11:27:18.563,101156,13727,10654,94476,97081
2025-05-29 11:27:18.571,101177,13733,10668,94575,97161
2025-05-29 11:27:18.579,101209,13735,10686,94628,97231
2025-05-29 11:27:18.592,101221,13743,10699,94711,97310
2025-05-29 11:27:18.599,101225,13746,10705,94767,97363
2025-05-29 11:27:18.611,101212,13759,10725,94792,97394
2025-05-29 11:27:18.629,101187,13756,10728,94801,97424
2025-05-29 11:27:18.631,101130,13770,10733,94808,97430
2025-05-29 11:27:18.643,101060,13772,10728,94789,97428
2025-05-29 11:27:18.645,101060,13772,10728,94789,97428
2025-05-29 11:27:18.652,100859,13787,10718,94722,97382
2025-05-29 11:27:18.660,100767,13783,10709,94654,97337
2025-05-29 11:27:18.672,100668,13777,10702,94586,97289
2025-05-29 11:27:18.691,100600,13770,10683,94475,97206
2025-05-29 11:27:18.692,100526,13780,10674,94388,97162
2025-05-29 11:27:18.700,100499,13782,10666,94293,97082
2025-05-29 11:27:18.711,100492,13782,10665,94228,97029
2025-05-29 11:27:18.720,100512,13791,10669,94132,96972
2025-05-29 11:27:18.732,100540,13805,10667,94074,96926
2025-05-29 11:27:18.739,100572,13807,10678,94021,96883
2025-05-29 11:27:18.754,100619,13815,10679,93954,96829
2025-05-29 11:27:18.760,100676,13810,10665,93894,96783
2025-05-29 11:27:18.771,100751,13807,10661,93816,96713
2025-05-29 11:27:18.780,100851,13805,10656,93716,96644
2025-05-29 11:27:18.792,100973,13783,10645,93643,96548
2025-05-29 11:27:18.799,101102,13772,10633,93537,96442
2025-05-29 11:27:18.816,101206,13752,10632,93451,96368
2025-05-29 11:27:18.823,101332,13746,10604,93421,96290
2025-05-29 11:27:18.831,101448,13740,10615,93372,96252
2025-05-29 11:27:18.844,101523,13730,10610,93350,96218
2025-05-29 11:27:18.852,101620,13725,10609,93368,96219
2025-05-29 11:27:18.863,101719,13723,10626,93411,96254
2025-05-29 11:27:18.879,101840,13733,10641,93490,96280
2025-05-29 11:27:18.884,101968,13738,10670,93571,96353
2025-05-29 11:27:18.892,102139,13754,10695,93680,96438
2025-05-29 11:27:18.904,102286,13770,10731,93786,96529
2025-05-29 11:27:18.912,102421,13801,10769,93884,96599
2025-05-29 11:27:18.923,102522,13809,10797,93961,96704
2025-05-29 11:27:18.942,102570,13834,10822,94047,96769
2025-05-29 11:27:18.944,102552,13838,10846,94113,96840
2025-05-29 11:27:18.951,102506,13846,10841,94169,96880
2025-05-29 11:27:18.964,102379,13839,10837,94193,96914
2025-05-29 11:27:18.971,102230,13835,10817,94196,96923
2025-05-29 11:27:18.984,102043,13820,10788,94204,96922
2025-05-29 11:27:19.005,101851,13809,10759,94243,96954
2025-05-29 11:27:19.006,101735,13795,10738,94265,96980
2025-05-29 11:27:19.011,101621,13788,10730,94289,96985
2025-05-29 11:27:19.024,101527,13781,10712,94289,96999
2025-05-29 11:27:19.032,101469,13770,10707,94292,97002
2025-05-29 11:27:19.043,101435,13770,10690,94273,97006
2025-05-29 11:27:19.051,101409,13759,10674,94247,96981
2025-05-29 11:27:19.068,101389,13748,10667,94237,96957
2025-05-29 11:27:19.071,101374,13749,10662,94206,96946
2025-05-29 11:27:19.083,101392,13747,10663,94199,96917
2025-05-29 11:27:19.091,101417,13738,10659,94149,96894
2025-05-29 11:27:19.104,101470,13748,10659,94120,96851
2025-05-29 11:27:19.115,101525,13733,10665,94055,96813
2025-05-29 11:27:19.131,101600,13740,10664,94001,96767
2025-05-29 11:27:19.135,101671,13742,10670,93965,96723
2025-05-29 11:27:19.144,101718,13745,10664,93896,96683
2025-05-29 11:27:19.156,101800,13739,10675,93855,96639
2025-05-29 11:27:19.163,101903,13740,10672,93778,96591
2025-05-29 11:27:19.176,101991,13739,10674,93722,96545
2025-05-29 11:27:19.194,102096,13730,10668,93687,96502
2025-05-29 11:27:19.195,102177,13715,10668,93634,96456
2025-05-29 11:27:19.203,102259,13714,10665,93584,96390
2025-05-29 11:27:19.216,102317,13704,10661,93547,96361
2025-05-29 11:27:19.223,102390,13701,10667,93500,96318
2025-05-29 11:27:19.235,102435,13698,10657,93474,96295
2025-05-29 11:27:19.257,102503,13694,10662,93462,96284
2025-05-29 11:27:19.258,102559,13692,10670,93476,96280
2025-05-29 11:27:19.263,102615,13707,10673,93520,96294
2025-05-29 11:27:19.275,102680,13705,10687,93582,96341
2025-05-29 11:27:19.284,102731,13716,10692,93634,96374
2025-05-29 11:27:19.295,102783,13729,10707,93677,96407
2025-05-29 11:27:19.304,102827,13734,10717,93732,96438
2025-05-29 11:27:19.321,102857,13740,10720,93762,96469
2025-05-29 11:27:19.323,102898,13742,10726,93788,96488
2025-05-29 11:27:19.336,102942,13742,10731,93805,96504
2025-05-29 11:27:19.344,102989,13759,10741,93828,96507
2025-05-29 11:27:19.356,103037,13755,10753,93842,96531
2025-05-29 11:27:19.363,103108,13768,10759,93844,96524
2025-05-29 11:27:19.383,103171,13779,10783,93858,96546
2025-05-29 11:27:19.387,103270,13811,10809,93889,96574
2025-05-29 11:27:19.396,103339,13825,10838,93915,96615
2025-05-29 11:27:19.407,103409,13859,10873,93954,96660
2025-05-29 11:27:19.415,103415,13890,10892,94018,96732
2025-05-29 11:27:19.428,103359,13908,10931,94080,96806
2025-05-29 11:27:19.446,103225,13927,10928,94181,96900
2025-05-29 11:27:19.448,103069,13937,10935,94221,96954
2025-05-29 11:27:19.455,102898,13942,10923,94199,96959
2025-05-29 11:27:19.468,102671,13940,10902,94205,96952
2025-05-29 11:27:19.476,102410,13950,10869,94191,96969
2025-05-29 11:27:19.488,102141,13934,10827,94221,96983
2025-05-29 11:27:19.495,101891,13906,10781,94245,96996
2025-05-29 11:27:19.509,101699,13903,10745,94238,97001
2025-05-29 11:27:19.516,101578,13874,10715,94217,96987
2025-05-29 11:27:19.528,101517,13861,10700,94202,96935
2025-05-29 11:27:19.535,101482,13849,10684,94146,96895
2025-05-29 11:27:19.548,101486,13842,10671,94134,96884
2025-05-29 11:27:19.555,101496,13828,10666,94139,96879
2025-05-29 11:27:19.572,101561,13828,10677,94129,96862
2025-05-29 11:27:19.575,101631,13822,10686,94146,96873
2025-05-29 11:27:19.587,101710,13818,10694,94156,96905
2025-05-29 11:27:19.595,101806,13828,10708,94173,96899
2025-05-29 11:27:19.608,101877,13827,10720,94176,96911
2025-05-29 11:27:19.615,101896,13827,10728,94149,96913
2025-05-29 11:27:19.636,101910,13818,10727,94144,96899
2025-05-29 11:27:19.637,101893,13810,10719,94104,96864
2025-05-29 11:27:19.648,101876,13801,10709,94060,96817
2025-05-29 11:27:19.655,101884,13788,10703,94003,96779
2025-05-29 11:27:19.667,101885,13777,10689,93952,96713
2025-05-29 11:27:19.680,101879,13778,10681,93862,96650
2025-05-29 11:27:19.698,101900,13750,10660,93801,96590
2025-05-29 11:27:19.699,101963,13744,10653,93735,96502
2025-05-29 11:27:19.708,102004,13719,10657,93676,96469
2025-05-29 11:27:19.719,102059,13715,10640,93622,96402
2025-05-29 11:27:19.727,102127,13707,10635,93591,96381
2025-05-29 11:27:19.740,102193,13717,10656,93578,96354
2025-05-29 11:27:19.761,102271,13723,10665,93617,96386
2025-05-29 11:27:19.762,102345,13735,10687,93691,96421
2025-05-29 11:27:19.768,102411,13760,10719,93796,96518
2025-05-29 11:27:19.780,102410,13784,10747,93914,96622
2025-05-29 11:27:19.788,102379,13795,10761,94031,96732
2025-05-29 11:27:19.799,102269,13816,10780,94126,96833
2025-05-29 11:27:19.808,102080,13816,10773,94212,96903
2025-05-29 11:27:19.824,101815,13817,10740,94233,96947
2025-05-29 11:27:19.828,101522,13815,10702,94233,96967
2025-05-29 11:27:19.839,101212,13791,10657,94246,96975
2025-05-29 11:27:19.852,100935,13776,10606,94212,96967
2025-05-29 11:27:19.853,100935,13776,10606,94212,96967
2025-05-29 11:27:19.859,100549,13732,10555,94175,96930
2025-05-29 11:27:19.867,100448,13721,10538,94157,96937
2025-05-29 11:27:19.887,100363,13711,10534,94163,96931
2025-05-29 11:27:19.888,100324,13686,10515,94168,96950
2025-05-29 11:27:19.899,100268,13682,10508,94178,96964
2025-05-29 11:27:19.907,100209,13675,10505,94199,96971
2025-05-29 11:27:19.920,100170,13661,10499,94226,97009
2025-05-29 11:27:19.928,100122,13663,10500,94217,97012
2025-05-29 11:27:19.950,100124,13651,10501,94201,96996
2025-05-29 11:27:19.951,100128,13654,10503,94162,96988
2025-05-29 11:27:19.960,100124,13654,10506,94118,96968
2025-05-29 11:27:19.971,100116,13648,10509,94095,96942
2025-05-29 11:27:19.980,100121,13654,10510,94054,96929
2025-05-29 11:27:19.992,100117,13652,10510,94007,96882
2025-05-29 11:27:20.013,100131,13661,10521,93965,96853
2025-05-29 11:27:20.014,100142,13659,10512,93906,96825
2025-05-29 11:27:20.020,100152,13661,10509,93865,96772
2025-05-29 11:27:20.031,100178,13655,10505,93793,96741
2025-05-29 11:27:20.039,100201,13661,10506,93725,96688
2025-05-29 11:27:20.052,100241,13648,10488,93638,96634
2025-05-29 11:27:20.059,100309,13641,10484,93570,96570
2025-05-29 11:27:20.076,100407,13634,10485,93489,96515
2025-05-29 11:27:20.080,100523,13638,10490,93427,96468
2025-05-29 11:27:20.091,100641,13640,10491,93400,96431
2025-05-29 11:27:20.099,100778,13637,10496,93370,96416
2025-05-29 11:27:20.111,100911,13641,10507,93401,96419
2025-05-29 11:27:20.119,101030,13652,10526,93417,96433
2025-05-29 11:27:20.140,101122,13641,10544,93509,96480
2025-05-29 11:27:20.141,101180,13673,10567,93587,96539
2025-05-29 11:27:20.152,101203,13685,10590,93697,96619
2025-05-29 11:27:20.159,101180,13703,10603,93783,96691
2025-05-29 11:27:20.171,101123,13705,10611,93876,96770
2025-05-29 11:27:20.179,101015,13715,10605,93941,96839
2025-05-29 11:27:20.203,100909,13723,10614,93990,96879
2025-05-29 11:27:20.204,100773,13722,10588,94026,96918
2025-05-29 11:27:20.211,100640,13707,10583,94040,96926
2025-05-29 11:27:20.220,100527,13717,10570,94045,96947
2025-05-29 11:27:20.231,100419,13710,10558,94026,96958
2025-05-29 11:27:20.244,100325,13693,10556,94012,96940
2025-05-29 11:27:20.252,100263,13689,10540,93994,96929
2025-05-29 11:27:20.266,100232,13685,10535,93963,96906
2025-05-29 11:27:20.271,100192,13683,10530,93935,96884
2025-05-29 11:27:20.283,100203,13675,10525,93922,96862
2025-05-29 11:27:20.291,100205,13672,10526,93898,96863
2025-05-29 11:27:20.303,100229,13678,10524,93891,96845
2025-05-29 11:27:20.311,100249,13666,10533,93863,96842
2025-05-29 11:27:20.329,100261,13676,10537,93875,96840
2025-05-29 11:27:20.332,100277,13658,10544,93862,96824
2025-05-29 11:27:20.344,100316,13666,10535,93874,96831
2025-05-29 11:27:20.351,100308,13666,10540,93884,96815
2025-05-29 11:27:20.364,100337,13659,10546,93885,96823
2025-05-29 11:27:20.371,100323,13649,10538,93889,96809
2025-05-29 11:27:20.391,100315,13637,10528,93872,96818
2025-05-29 11:27:20.392,100304,13637,10528,93869,96786
2025-05-29 11:27:20.403,100297,13614,10516,93846,96788
2025-05-29 11:27:20.412,100308,13610,10514,93854,96764
2025-05-29 11:27:20.424,100307,13589,10494,93830,96742
2025-05-29 11:27:20.432,100344,13580,10495,93801,96711
2025-05-29 11:27:20.455,100360,13578,10500,93786,96703
2025-05-29 11:27:20.456,100381,13568,10488,93772,96685
2025-05-29 11:27:20.463,100397,13556,10490,93758,96664
2025-05-29 11:27:20.471,100399,13557,10486,93765,96646
2025-05-29 11:27:20.484,100376,13555,10479,93758,96648
2025-05-29 11:27:20.491,100360,13558,10493,93737,96640
2025-05-29 11:27:20.504,100328,13550,10482,93753,96638
2025-05-29 11:27:20.518,100313,13555,10481,93749,96637
2025-05-29 11:27:20.523,100286,13553,10482,93741,96629
2025-05-29 11:27:20.535,100272,13546,10476,93725,96627
2025-05-29 11:27:20.544,100243,13548,10483,93709,96629
2025-05-29 11:27:20.555,100208,13559,10468,93705,96619
2025-05-29 11:27:20.563,100161,13558,10467,93679,96606
2025-05-29 11:27:20.581,100115,13546,10460,93645,96594
2025-05-29 11:27:20.584,100080,13535,10453,93601,96564
2025-05-29 11:27:20.596,100066,13537,10455,93558,96528
2025-05-29 11:27:20.604,100057,13531,10438,93511,96483
2025-05-29 11:27:20.615,100049,13524,10424,93463,96429
2025-05-29 11:27:20.624,100082,13520,10428,93406,96400
2025-05-29 11:27:20.644,100104,13512,10428,93380,96377
2025-05-29 11:27:20.645,100147,13516,10423,93370,96352
2025-05-29 11:27:20.656,100169,13513,10432,93356,96358
2025-05-29 11:27:20.663,100194,13520,10436,93377,96367
2025-05-29 11:27:20.675,100175,13523,10435,93413,96399
2025-05-29 11:27:20.684,100136,13523,10453,93432,96429
2025-05-29 11:27:20.707,100082,13518,10440,93494,96457
2025-05-29 11:27:20.708,100012,13518,10442,93537,96498
2025-05-29 11:27:20.716,99932,13522,10420,93576,96537
2025-05-29 11:27:20.723,99851,13499,10419,93613,96568
2025-05-29 11:27:20.735,99760,13499,10407,93641,96598
2025-05-29 11:27:20.744,99682,13492,10402,93658,96609
2025-05-29 11:27:20.755,99611,13487,10398,93682,96632
2025-05-29 11:27:20.770,99564,13471,10381,93678,96630
2025-05-29 11:27:20.776,99490,13463,10375,93692,96665
2025-05-29 11:27:20.783,99432,13456,10375,93684,96661
2025-05-29 11:27:20.795,99407,13436,10368,93689,96666
2025-05-29 11:27:20.802,99389,13432,10342,93690,96653
2025-05-29 11:27:20.815,99359,13422,10356,93704,96650
2025-05-29 11:27:20.833,99332,13411,10347,93728,96682
2025-05-29 11:27:20.835,99316,13407,10350,93740,96682
2025-05-29 11:27:20.843,99313,13406,10348,93745,96690
2025-05-29 11:27:20.855,99303,13396,10349,93754,96715
2025-05-29 11:27:20.867,99301,13395,10337,93777,96715
2025-05-29 11:27:20.875,99306,13398,10345,93800,96729
2025-05-29 11:27:20.895,99295,13385,10353,93799,96747
2025-05-29 11:27:20.897,99289,13393,10348,93815,96756
2025-05-29 11:27:20.907,99270,13389,10351,93806,96749
2025-05-29 11:27:20.916,99274,13401,10355,93797,96749
2025-05-29 11:27:20.928,99267,13388,10352,93781,96730
2025-05-29 11:27:20.935,99290,13384,10360,93745,96714
2025-05-29 11:27:20.958,99303,13374,10352,93704,96679
2025-05-29 11:27:20.959,99346,13393,10366,93669,96625
2025-05-29 11:27:20.968,99402,13392,10364,93628,96609
2025-05-29 11:27:20.976,99457,13398,10357,93579,96563
2025-05-29 11:27:20.987,99516,13398,10367,93539,96522
2025-05-29 11:27:20.995,99578,13402,10382,93496,96496
2025-05-29 11:27:21.007,99629,13419,10379,93449,96469
2025-05-29 11:27:21.022,99696,13418,10378,93414,96444
2025-05-29 11:27:21.028,99748,13426,10392,93367,96411
2025-05-29 11:27:21.035,99821,13431,10392,93353,96388
2025-05-29 11:27:21.048,99892,13431,10404,93287,96342
2025-05-29 11:27:21.059,99958,13435,10394,93246,96298
2025-05-29 11:27:21.060,99958,13435,10394,93246,96298
2025-05-29 11:27:21.067,100114,13449,10403,93181,96244
2025-05-29 11:27:21.084,100212,13447,10396,93136,96214
2025-05-29 11:27:21.087,100283,13443,10401,93126,96190
2025-05-29 11:27:21.096,100376,13455,10406,93112,96168
2025-05-29 11:27:21.108,100441,13455,10415,93112,96176
2025-05-29 11:27:21.115,100511,13465,10414,93130,96182
2025-05-29 11:27:21.128,100581,13464,10425,93160,96215
2025-05-29 11:27:21.147,100637,13469,10441,93207,96235
2025-05-29 11:27:21.148,100691,13490,10458,93285,96279
2025-05-29 11:27:21.155,100713,13505,10470,93351,96342
2025-05-29 11:27:21.168,100688,13526,10486,93416,96391
2025-05-29 11:27:21.175,100626,13533,10488,93483,96447
2025-05-29 11:27:21.188,100548,13535,10498,93525,96504
2025-05-29 11:27:21.195,100459,13546,10490,93546,96516
2025-05-29 11:27:21.210,100367,13556,10484,93543,96528
2025-05-29 11:27:21.220,100250,13560,10481,93537,96523
2025-05-29 11:27:21.228,100138,13552,10465,93504,96517
2025-05-29 11:27:21.240,100064,13554,10468,93456,96505
2025-05-29 11:27:21.247,100015,13546,10451,93432,96455
2025-05-29 11:27:21.272,99976,13540,10441,93411,96433
2025-05-29 11:27:21.274,99962,13534,10438,93365,96393
2025-05-29 11:27:21.279,99990,13518,10423,93337,96378
2025-05-29 11:27:21.287,100017,13508,10421,93311,96342
2025-05-29 11:27:21.300,100085,13498,10410,93285,96334
2025-05-29 11:27:21.307,100159,13493,10403,93271,96297
2025-05-29 11:27:21.320,100247,13465,10418,93276,96289
2025-05-29 11:27:21.336,100318,13460,10412,93269,96272
2025-05-29 11:27:21.339,100395,13461,10418,93294,96281
2025-05-29 11:27:21.348,100457,13455,10409,93320,96299
2025-05-29 11:27:21.360,100499,13446,10417,93347,96297
2025-05-29 11:27:21.367,100505,13446,10422,93371,96322
2025-05-29 11:27:21.379,100519,13453,10427,93412,96349
2025-05-29 11:27:21.398,100503,13440,10428,93427,96374
2025-05-29 11:27:21.400,100488,13445,10425,93456,96366
2025-05-29 11:27:21.407,100446,13443,10417,93464,96395
2025-05-29 11:27:21.419,100382,13431,10408,93458,96393
2025-05-29 11:27:21.427,100344,13427,10406,93461,96388
2025-05-29 11:27:21.440,100311,13418,10386,93446,96369
2025-05-29 11:27:21.447,100264,13400,10390,93447,96373
2025-05-29 11:27:21.462,100235,13402,10359,93414,96359
2025-05-29 11:27:21.467,100242,13393,10365,93416,96336
2025-05-29 11:27:21.479,100254,13390,10361,93391,96329
2025-05-29 11:27:21.492,100273,13377,10356,93390,96318
2025-05-29 11:27:21.499,100304,13372,10358,93383,96310
2025-05-29 11:27:21.524,100341,13377,10357,93378,96299
2025-05-29 11:27:21.525,100400,13366,10354,93369,96290
2025-05-29 11:27:21.532,100437,13368,10352,93366,96281
2025-05-29 11:27:21.539,100480,13357,10359,93368,96281
2025-05-29 11:27:21.551,100536,13357,10356,93369,96277
2025-05-29 11:27:21.559,100570,13353,10354,93367,96287
2025-05-29 11:27:21.571,100630,13355,10361,93371,96265
2025-05-29 11:27:21.586,100677,13352,10369,93376,96269
2025-05-29 11:27:21.592,100702,13355,10371,93405,96277
2025-05-29 11:27:21.599,100707,13363,10370,93398,96282
2025-05-29 11:27:21.611,100731,13351,10374,93417,96280
2025-05-29 11:27:21.618,100696,13352,10380,93427,96302
2025-05-29 11:27:21.631,100666,13348,10378,93472,96337
2025-05-29 11:27:21.649,100624,13352,10380,93507,96363
2025-05-29 11:27:21.651,100571,13348,10377,93541,96392
2025-05-29 11:27:21.659,100487,13351,10372,93589,96417
2025-05-29 11:27:21.671,100399,13349,10357,93613,96444
2025-05-29 11:27:21.679,100308,13346,10352,93648,96463
2025-05-29 11:27:21.691,100212,13343,10346,93647,96477
2025-05-29 11:27:21.712,100097,13344,10332,93673,96504
2025-05-29 11:27:21.713,99995,13334,10317,93701,96533
2025-05-29 11:27:21.720,99888,13325,10314,93720,96562
2025-05-29 11:27:21.731,99800,13314,10301,93738,96571
2025-05-29 11:27:21.740,99727,13305,10294,93742,96596
2025-05-29 11:27:21.751,99637,13301,10293,93779,96623
2025-05-29 11:27:21.760,99584,13292,10276,93778,96636
2025-05-29 11:27:21.774,99531,13289,10286,93801,96669
2025-05-29 11:27:21.779,99477,13293,10288,93806,96659
2025-05-29 11:27:21.791,99413,13284,10279,93841,96707
2025-05-29 11:27:21.799,99352,13276,10296,93856,96730
2025-05-29 11:27:21.812,99281,13288,10286,93876,96770
2025-05-29 11:27:21.819,99199,13273,10287,93873,96766
2025-05-29 11:27:21.839,99127,13276,10286,93882,96783
2025-05-29 11:27:21.843,99020,13270,10278,93883,96792
2025-05-29 11:27:21.852,98926,13269,10272,93879,96807
2025-05-29 11:27:21.864,98795,13266,10272,93863,96806
2025-05-29 11:27:21.871,98697,13262,10267,93855,96805
2025-05-29 11:27:21.884,98605,13248,10262,93822,96809
2025-05-29 11:27:21.902,98505,13242,10248,93782,96807
2025-05-29 11:27:21.904,98433,13230,10244,93722,96756
2025-05-29 11:27:21.911,98381,13221,10234,93670,96740
2025-05-29 11:27:21.925,98359,13208,10230,93638,96685
2025-05-29 11:27:21.931,98352,13201,10227,93587,96652
2025-05-29 11:27:21.943,98383,13195,10229,93558,96627
2025-05-29 11:27:21.951,98403,13191,10227,93532,96615
2025-05-29 11:27:21.966,98456,13191,10226,93537,96590
2025-05-29 11:27:21.972,98506,13195,10229,93491,96574
2025-05-29 11:27:21.983,98561,13188,10226,93502,96569
2025-05-29 11:27:21.992,98615,13186,10229,93493,96532
2025-05-29 11:27:22.003,98697,13181,10228,93479,96531
2025-05-29 11:27:22.010,98749,13187,10223,93469,96501
2025-05-29 11:27:22.029,98848,13177,10237,93463,96495
2025-05-29 11:27:22.031,98910,13171,10234,93461,96483
2025-05-29 11:27:22.043,98989,13181,10241,93461,96472
2025-05-29 11:27:22.051,99062,13174,10243,93476,96476
2025-05-29 11:27:22.063,99127,13183,10252,93488,96467
2025-05-29 11:27:22.071,99196,13199,10255,93509,96480
2025-05-29 11:27:22.092,99230,13209,10261,93544,96507
2025-05-29 11:27:22.093,99246,13198,10255,93589,96542
2025-05-29 11:27:22.102,99256,13196,10269,93641,96580
2025-05-29 11:27:22.111,99242,13194,10254,93682,96596
2025-05-29 11:27:22.123,99207,13180,10264,93725,96666
2025-05-29 11:27:22.131,99157,13172,10259,93749,96693
2025-05-29 11:27:22.155,99123,13172,10249,93800,96721
2025-05-29 11:27:22.156,99068,13157,10243,93831,96746
2025-05-29 11:27:22.163,99010,13143,10238,93846,96783
2025-05-29 11:27:22.171,98981,13127,10228,93858,96785
2025-05-29 11:27:22.183,98936,13124,10218,93864,96802
2025-05-29 11:27:22.191,98904,13112,10204,93868,96801
2025-05-29 11:27:22.204,98877,13082,10188,93864,96799
2025-05-29 11:27:22.219,98843,13082,10185,93856,96783
2025-05-29 11:27:22.224,98836,13055,10178,93858,96781
2025-05-29 11:27:22.235,98814,13052,10166,93860,96783
2025-05-29 11:27:22.242,98804,13030,10166,93845,96770
2025-05-29 11:27:22.255,98790,13025,10166,93836,96749
2025-05-29 11:27:22.264,98835,13019,10164,93815,96748
2025-05-29 11:27:22.282,98845,13014,10156,93806,96720
2025-05-29 11:27:22.284,98890,12998,10154,93780,96716
2025-05-29 11:27:22.295,98938,12997,10162,93763,96677
2025-05-29 11:27:22.303,98987,12998,10167,93741,96656
2025-05-29 11:27:22.316,99033,12996,10170,93714,96628
2025-05-29 11:27:22.323,99110,13005,10187,93685,96612
2025-05-29 11:27:22.346,99142,13006,10195,93651,96581
2025-05-29 11:27:22.347,99176,13020,10191,93646,96565
2025-05-29 11:27:22.355,99148,13023,10209,93603,96533
2025-05-29 11:27:22.363,99116,13038,10209,93575,96514
2025-05-29 11:27:22.375,99073,13044,10200,93522,96488
2025-05-29 11:27:22.383,99048,13039,10200,93432,96463
2025-05-29 11:27:22.395,99012,13068,10180,93358,96409
2025-05-29 11:27:22.409,99021,13053,10191,93292,96350
2025-05-29 11:27:22.415,99020,13053,10184,93179,96297
2025-05-29 11:27:22.423,99046,13065,10175,93068,96226
2025-05-29 11:27:22.435,99066,13063,10180,92964,96151
2025-05-29 11:27:22.443,99097,13060,10179,92861,96087
2025-05-29 11:27:22.455,99122,13057,10167,92751,96012
2025-05-29 11:27:22.472,99151,13051,10157,92641,95944
2025-05-29 11:27:22.473,99151,13051,10157,92641,95944
2025-05-29 11:27:22.475,99187,13058,10136,92491,95840
2025-05-29 11:27:22.483,99180,13043,10144,92453,95805
2025-05-29 11:27:22.495,99196,13036,10124,92447,95796
2025-05-29 11:27:22.504,99167,13042,10136,92469,95788
2025-05-29 11:27:22.515,99145,13033,10137,92522,95825
2025-05-29 11:27:22.535,99160,13045,10147,92572,95852
2025-05-29 11:27:22.537,99151,13037,10147,92654,95895
2025-05-29 11:27:22.543,99136,13061,10146,92717,95940
2025-05-29 11:27:22.555,99124,13047,10159,92801,95988
2025-05-29 11:27:22.563,99107,13081,10168,92866,96043
2025-05-29 11:27:22.575,99059,13068,10173,92925,96079
2025-05-29 11:27:22.583,99014,13090,10187,92964,96132
2025-05-29 11:27:22.598,98961,13092,10200,92995,96173
2025-05-29 11:27:22.603,98864,13096,10204,92997,96207
2025-05-29 11:27:22.615,98743,13108,10200,92983,96227
2025-05-29 11:27:22.623,98613,13084,10206,92958,96206
2025-05-29 11:27:22.635,98460,13103,10190,92899,96195
2025-05-29 11:27:22.647,98332,13079,10179,92829,96159
2025-05-29 11:27:22.662,98176,13085,10171,92733,96145
2025-05-29 11:27:22.667,98046,13057,10150,92628,96088
2025-05-29 11:27:22.675,97966,13045,10136,92538,96030
2025-05-29 11:27:22.687,97923,13028,10119,92450,95971
2025-05-29 11:27:22.696,97877,13016,10115,92361,95930
2025-05-29 11:27:22.707,97904,13014,10112,92305,95897
2025-05-29 11:27:22.727,97948,13001,10110,92303,95864
2025-05-29 11:27:22.728,98021,12992,10107,92322,95858
2025-05-29 11:27:22.736,98128,13009,10127,92332,95848
2025-05-29 11:27:22.747,98227,13010,10117,92370,95885
2025-05-29 11:27:22.755,98304,13029,10118,92425,95894
2025-05-29 11:27:22.767,98360,13009,10127,92479,95932
2025-05-29 11:27:22.775,98443,13011,10122,92548,95968
2025-05-29 11:27:22.790,98525,13026,10139,92602,95994
2025-05-29 11:27:22.795,98584,13027,10138,92639,96021
2025-05-29 11:27:22.807,98656,13024,10147,92719,96065
2025-05-29 11:27:22.816,98720,13019,10151,92759,96079
2025-05-29 11:27:22.828,98779,13018,10157,92806,96097
2025-05-29 11:27:22.835,98873,13028,10158,92835,96114
2025-05-29 11:27:22.853,98934,13023,10162,92850,96113
2025-05-29 11:27:22.856,99042,13036,10176,92862,96108
2025-05-29 11:27:22.867,99117,13043,10187,92886,96128
2025-05-29 11:27:22.875,99221,13054,10185,92902,96120
2025-05-29 11:27:22.887,99321,13059,10211,92901,96135
2025-05-29 11:27:22.896,99421,13077,10201,92921,96141
2025-05-29 11:27:22.916,99509,13072,10232,92910,96117
2025-05-29 11:27:22.918,99591,13087,10210,92897,96108
2025-05-29 11:27:22.928,99682,13097,10249,92894,96098
2025-05-29 11:27:22.934,99770,13107,10236,92865,96087
2025-05-29 11:27:22.947,99838,13114,10246,92840,96058
2025-05-29 11:27:22.955,99894,13119,10242,92793,96035
2025-05-29 11:27:22.980,99975,13121,10234,92767,95996
2025-05-29 11:27:22.981,100051,13138,10246,92731,95961
2025-05-29 11:27:22.987,100117,13139,10235,92697,95930
2025-05-29 11:27:22.999,100212,13142,10250,92650,95931
2025-05-29 11:27:23.007,100266,13150,10253,92653,95908
2025-05-29 11:27:23.019,100323,13139,10251,92640,95887
2025-05-29 11:27:23.026,100341,13144,10250,92648,95895
2025-05-29 11:27:23.044,100328,13142,10254,92667,95912
2025-05-29 11:27:23.047,100287,13133,10263,92685,95915
2025-05-29 11:27:23.059,100239,13129,10236,92718,95937
2025-05-29 11:27:23.068,100171,13118,10245,92758,95944
2025-05-29 11:27:23.079,100114,13110,10232,92758,95965
2025-05-29 11:27:23.087,100058,13106,10220,92801,95994
2025-05-29 11:27:23.106,100010,13103,10213,92838,95998
2025-05-29 11:27:23.123,99969,13076,10208,92868,96005
2025-05-29 11:27:23.124,99946,13092,10214,92900,96041
2025-05-29 11:27:23.126,99902,13080,10198,92910,96023
2025-05-29 11:27:23.139,99900,13058,10197,92932,96011
2025-05-29 11:27:23.147,99904,13056,10191,92924,96033
2025-05-29 11:27:23.169,99887,13062,10194,92951,96034
2025-05-29 11:27:23.170,99907,13051,10185,92971,96050
2025-05-29 11:27:23.179,99905,13043,10192,92993,96064
2025-05-29 11:27:23.187,99921,13051,10183,93049,96108
2025-05-29 11:27:23.199,99915,13052,10190,93082,96120
2025-05-29 11:27:23.207,99887,13056,10187,93118,96149
2025-05-29 11:27:23.232,99887,13059,10187,93117,96153
2025-05-29 11:27:23.233,99875,13055,10189,93133,96165
2025-05-29 11:27:23.239,99825,13058,10190,93127,96161
2025-05-29 11:27:23.247,99807,13064,10184,93121,96176
2025-05-29 11:27:23.259,99778,13060,10186,93105,96157
2025-05-29 11:27:23.268,99770,13057,10184,93095,96147
2025-05-29 11:27:23.279,99772,13057,10182,93063,96120
2025-05-29 11:27:23.294,99763,13049,10171,93017,96087
2025-05-29 11:27:23.299,99792,13036,10165,92972,96051
2025-05-29 11:27:23.306,99810,13027,10160,92928,96016
2025-05-29 11:27:23.320,99858,13036,10158,92928,95989
2025-05-29 11:27:23.327,99899,13032,10156,92893,95986
2025-05-29 11:27:23.339,99959,13039,10161,92904,95969
2025-05-29 11:27:23.357,100001,13039,10167,92924,95984
2025-05-29 11:27:23.359,100043,13041,10183,92926,95989
2025-05-29 11:27:23.371,100082,13035,10178,92943,95983
2025-05-29 11:27:23.379,100113,13046,10177,92964,96004
2025-05-29 11:27:23.391,100114,13053,10183,92976,96030
2025-05-29 11:27:23.399,100124,13045,10189,92992,96021
2025-05-29 11:27:23.420,100102,13065,10191,93024,96030
2025-05-29 11:27:23.421,100100,13062,10196,93013,96042
2025-05-29 11:27:23.431,100054,13062,10194,93031,96059
2025-05-29 11:27:23.439,99991,13064,10191,93028,96068
2025-05-29 11:27:23.451,99950,13063,10182,93039,96067
2025-05-29 11:27:23.459,99920,13067,10189,93043,96095
2025-05-29 11:27:23.483,99890,13069,10182,93025,96068
2025-05-29 11:27:23.484,99880,13072,10170,93016,96061
2025-05-29 11:27:23.491,99885,13060,10178,93003,96042
2025-05-29 11:27:23.499,99901,13073,10182,92998,96035
2025-05-29 11:27:23.511,99918,13078,10186,92998,96052
2025-05-29 11:27:23.518,99938,13078,10192,92990,96044
2025-05-29 11:27:23.531,99965,13078,10191,92997,96058
2025-05-29 11:27:23.545,99980,13083,10197,92989,96038
2025-05-29 11:27:23.551,99997,13093,10201,92996,96046
2025-05-29 11:27:23.560,100004,13100,10204,92995,96052
2025-05-29 11:27:23.571,100024,13107,10208,92997,96051
2025-05-29 11:27:23.579,100016,13102,10198,93009,96039
2025-05-29 11:27:23.590,100051,13100,10198,92997,96043
2025-05-29 11:27:23.609,100075,13094,10193,93002,96031
2025-05-29 11:27:23.610,100114,13096,10193,92999,96048
2025-05-29 11:27:23.619,100131,13097,10200,93013,96038
2025-05-29 11:27:23.631,100170,13099,10205,93001,96049
2025-05-29 11:27:23.639,100190,13097,10194,93041,96042
2025-05-29 11:27:23.651,100231,13105,10201,93015,96049
2025-05-29 11:27:23.672,100264,13113,10210,93019,96043
2025-05-29 11:27:23.673,100305,13112,10219,93027,96043
2025-05-29 11:27:23.679,100345,13119,10230,93021,96044
2025-05-29 11:27:23.691,100362,13115,10221,93044,96065
2025-05-29 11:27:23.700,100386,13127,10232,93042,96068
2025-05-29 11:27:23.710,100403,13134,10235,93042,96077
2025-05-29 11:27:23.735,100432,13132,10231,93050,96062
2025-05-29 11:27:23.736,100441,13135,10239,93040,96074
2025-05-29 11:27:23.743,100453,13144,10244,93071,96096
2025-05-29 11:27:23.750,100487,13147,10241,93088,96093
2025-05-29 11:27:23.763,100496,13153,10249,93122,96092
2025-05-29 11:27:23.771,100523,13151,10249,93127,96095
2025-05-29 11:27:23.784,100548,13144,10257,93137,96101
2025-05-29 11:27:23.798,100574,13150,10262,93157,96108
2025-05-29 11:27:23.803,100602,13149,10254,93178,96097
2025-05-29 11:27:23.811,100632,13147,10262,93185,96115
2025-05-29 11:27:23.824,100652,13147,10260,93177,96116
2025-05-29 11:27:23.831,100673,13127,10251,93198,96124
2025-05-29 11:27:23.843,100698,13122,10240,93172,96110
2025-05-29 11:27:23.861,100713,13118,10237,93198,96104
2025-05-29 11:27:23.863,100744,13114,10241,93190,96106
2025-05-29 11:27:23.875,100760,13110,10238,93177,96095
2025-05-29 11:27:23.876,100760,13110,10238,93177,96095
2025-05-29 11:27:23.882,100791,13099,10238,93186,96097
2025-05-29 11:27:23.891,100807,13101,10230,93195,96091
2025-05-29 11:27:23.903,100815,13091,10231,93191,96089
2025-05-29 11:27:23.925,100809,13086,10219,93197,96122
2025-05-29 11:27:23.926,100815,13101,10231,93206,96103
2025-05-29 11:27:23.932,100829,13092,10229,93186,96122
2025-05-29 11:27:23.943,100822,13085,10234,93194,96105
2025-05-29 11:27:23.951,100830,13094,10229,93175,96116
2025-05-29 11:27:23.963,100825,13086,10226,93187,96092
2025-05-29 11:27:23.971,100809,13087,10225,93188,96102
2025-05-29 11:27:23.988,100809,13086,10227,93188,96076
2025-05-29 11:27:23.994,100783,13090,10219,93187,96089
2025-05-29 11:27:24.002,100798,13090,10224,93196,96087
2025-05-29 11:27:24.015,100777,13093,10227,93211,96086
2025-05-29 11:27:24.023,100774,13105,10219,93201,96101
2025-05-29 11:27:24.035,100755,13093,10224,93204,96089
2025-05-29 11:27:24.051,100757,13117,10225,93222,96099
2025-05-29 11:27:24.055,100742,13108,10225,93222,96087
2025-05-29 11:27:24.064,100740,13116,10224,93221,96115
2025-05-29 11:27:24.075,100735,13101,10227,93197,96109
2025-05-29 11:27:24.083,100720,13105,10228,93195,96096
2025-05-29 11:27:24.095,100728,13106,10223,93194,96084
2025-05-29 11:27:24.114,100711,13115,10219,93185,96088
2025-05-29 11:27:24.115,100713,13107,10223,93184,96077
2025-05-29 11:27:24.123,100721,13107,10210,93197,96091
2025-05-29 11:27:24.134,100711,13112,10212,93190,96097
2025-05-29 11:27:24.143,100713,13115,10217,93195,96079
2025-05-29 11:27:24.155,100724,13107,10226,93175,96085
2025-05-29 11:27:24.163,100691,13117,10223,93199,96108
2025-05-29 11:27:24.178,100711,13120,10220,93198,96098
2025-05-29 11:27:24.183,100710,13133,10226,93215,96125
2025-05-29 11:27:24.195,100685,13117,10218,93210,96116
2025-05-29 11:27:24.203,100679,13118,10221,93205,96115
2025-05-29 11:27:24.215,100663,13132,10216,93214,96117
2025-05-29 11:27:24.223,100672,13130,10214,93188,96116
2025-05-29 11:27:24.240,100687,13130,10217,93192,96114
2025-05-29 11:27:24.243,100669,13141,10233,93192,96102
2025-05-29 11:27:24.255,100668,13147,10233,93182,96108
2025-05-29 11:27:24.267,100658,13150,10223,93156,96119
2025-05-29 11:27:24.275,100656,13151,10232,93179,96103
2025-05-29 11:27:24.287,100670,13153,10229,93186,96109
2025-05-29 11:27:24.303,100675,13155,10231,93174,96102
2025-05-29 11:27:24.307,100675,13163,10238,93182,96110
2025-05-29 11:27:24.315,100676,13170,10238,93185,96111
2025-05-29 11:27:24.327,100683,13171,10239,93170,96117
2025-05-29 11:27:24.335,100664,13170,10246,93181,96112
2025-05-29 11:27:24.347,100668,13184,10246,93194,96137
2025-05-29 11:27:24.366,100662,13200,10242,93176,96128
2025-05-29 11:27:24.368,100691,13192,10255,93185,96108
2025-05-29 11:27:24.375,100690,13198,10253,93163,96127
2025-05-29 11:27:24.387,100678,13206,10253,93175,96133
2025-05-29 11:27:24.396,100662,13207,10251,93160,96132
2025-05-29 11:27:24.407,100674,13206,10262,93173,96148
2025-05-29 11:27:24.415,100676,13213,10261,93160,96133
2025-05-29 11:27:24.430,100660,13218,10256,93170,96140
2025-05-29 11:27:24.435,100678,13220,10269,93158,96128
2025-05-29 11:27:24.447,100669,13230,10268,93147,96145
2025-05-29 11:27:24.455,100676,13229,10267,93164,96118
2025-05-29 11:27:24.467,100685,13237,10266,93151,96155
2025-05-29 11:27:24.475,100694,13234,10271,93153,96141
2025-05-29 11:27:24.493,100710,13237,10271,93160,96125
2025-05-29 11:27:24.495,100721,13235,10269,93163,96129
2025-05-29 11:27:24.507,100717,13221,10266,93141,96137
2025-05-29 11:27:24.515,100738,13217,10262,93133,96131
2025-05-29 11:27:24.527,100731,13213,10261,93120,96114
2025-05-29 11:27:24.535,100743,13195,10247,93130,96113
2025-05-29 11:27:24.556,100743,13202,10255,93122,96106
2025-05-29 11:27:24.559,100749,13184,10236,93122,96112
2025-05-29 11:27:24.567,100726,13176,10241,93128,96115
2025-05-29 11:27:24.579,100747,13190,10240,93124,96129
2025-05-29 11:27:24.587,100742,13171,10225,93124,96122
2025-05-29 11:27:24.599,100754,13158,10226,93102,96117
2025-05-29 11:27:24.619,100738,13165,10223,93101,96105
2025-05-29 11:27:24.620,100724,13160,10203,93103,96100
2025-05-29 11:27:24.627,100728,13148,10216,93069,96084
2025-05-29 11:27:24.639,100729,13149,10220,93045,96087
2025-05-29 11:27:24.648,100724,13152,10207,93035,96065
2025-05-29 11:27:24.658,100711,13151,10207,93035,96077
2025-05-29 11:27:24.667,100716,13148,10209,93035,96067
2025-05-29 11:27:24.683,100710,13135,10196,93048,96052
2025-05-29 11:27:24.686,100696,13141,10200,93031,96065
2025-05-29 11:27:24.699,100695,13129,10206,93036,96058
2025-05-29 11:27:24.707,100692,13146,10199,93038,96063
2025-05-29 11:27:24.719,100690,13126,10208,93038,96072
2025-05-29 11:27:24.726,100691,13143,10203,93034,96068
2025-05-29 11:27:24.747,100686,13137,10202,93037,96081
2025-05-29 11:27:24.749,100663,13139,10198,93029,96072
2025-05-29 11:27:24.759,100660,13133,10191,93014,96080
2025-05-29 11:27:24.767,100658,13138,10197,93009,96067
2025-05-29 11:27:24.779,100650,13130,10201,93010,96067
2025-05-29 11:27:24.787,100659,13139,10200,92999,96061
2025-05-29 11:27:24.811,100646,13117,10198,92993,96056
2025-05-29 11:27:24.812,100641,13146,10195,92984,96046
2025-05-29 11:27:24.819,100645,13144,10194,92982,96037
2025-05-29 11:27:24.830,100643,13132,10192,92971,96049
2025-05-29 11:27:24.839,100654,13127,10193,92958,96039
2025-05-29 11:27:24.851,100647,13132,10187,92975,96045
2025-05-29 11:27:24.859,100652,13140,10191,92958,96045
2025-05-29 11:27:24.874,100672,13127,10181,92942,96027
2025-05-29 11:27:24.879,100671,13135,10187,92944,96037
2025-05-29 11:27:24.890,100672,13132,10193,92935,96045
2025-05-29 11:27:24.899,100669,13138,10195,92930,96043
2025-05-29 11:27:24.911,100681,13145,10190,92922,96040
2025-05-29 11:27:24.919,100685,13141,10200,92928,96063
2025-05-29 11:27:24.937,100684,13143,10195,92925,96037
2025-05-29 11:27:24.939,100664,13139,10194,92910,96041
2025-05-29 11:27:24.952,100663,13146,10194,92917,96047
2025-05-29 11:27:24.959,100669,13151,10206,92908,96040
2025-05-29 11:27:24.971,100649,13152,10198,92913,96059
2025-05-29 11:27:24.979,100656,13149,10203,92915,96038
2025-05-29 11:27:25.000,100646,13160,10201,92905,96053
2025-05-29 11:27:25.002,100617,13162,10200,92902,96046
2025-05-29 11:27:25.011,100613,13165,10204,92879,96066
2025-05-29 11:27:25.019,100607,13167,10199,92872,96065
2025-05-29 11:27:25.031,100606,13176,10209,92853,96060
2025-05-29 11:27:25.040,100608,13164,10206,92846,96052
2025-05-29 11:27:25.064,100594,13170,10217,92822,96046
2025-05-29 11:27:25.066,100615,13169,10209,92834,96035
2025-05-29 11:27:25.071,100610,13179,10213,92826,96041
2025-05-29 11:27:25.083,100600,13179,10214,92821,96057
2025-05-29 11:27:25.084,100600,13179,10214,92821,96057
2025-05-29 11:27:25.091,100570,13201,10218,92798,96044
2025-05-29 11:27:25.099,100552,13197,10219,92803,96053
2025-05-29 11:27:25.111,100555,13196,10219,92766,96037
2025-05-29 11:27:25.128,100546,13193,10224,92759,96053
2025-05-29 11:27:25.130,100554,13206,10218,92771,96039
2025-05-29 11:27:25.143,100533,13201,10232,92747,96044
2025-05-29 11:27:25.151,100513,13210,10232,92752,96046
2025-05-29 11:27:25.163,100511,13207,10233,92738,96049
2025-05-29 11:27:25.171,100501,13210,10228,92727,96050
2025-05-29 11:27:25.191,100510,13192,10228,92713,96028
2025-05-29 11:27:25.193,100479,13190,10221,92720,96019
2025-05-29 11:27:25.203,100468,13177,10222,92709,96035
2025-05-29 11:27:25.211,100457,13167,10204,92694,96024
2025-05-29 11:27:25.223,100446,13160,10195,92687,96018
2025-05-29 11:27:25.230,100430,13157,10195,92687,95993
2025-05-29 11:27:25.254,100430,13140,10190,92670,95995
2025-05-29 11:27:25.255,100401,13136,10185,92642,95987
2025-05-29 11:27:25.262,100403,13125,10174,92638,95965
2025-05-29 11:27:25.271,100375,13115,10177,92626,95966
2025-05-29 11:27:25.283,100374,13109,10165,92610,95964
2025-05-29 11:27:25.291,100359,13103,10174,92583,95936
2025-05-29 11:27:25.303,100324,13093,10156,92561,95944
2025-05-29 11:27:25.320,100308,13085,10149,92521,95933
2025-05-29 11:27:25.323,100303,13086,10140,92500,95903
2025-05-29 11:27:25.331,100279,13071,10145,92482,95888
2025-05-29 11:27:25.343,100244,13071,10140,92474,95888
2025-05-29 11:27:25.350,100241,13062,10129,92469,95880
2025-05-29 11:27:25.363,100220,13063,10132,92470,95874
2025-05-29 11:27:25.383,100180,13066,10138,92445,95885
2025-05-29 11:27:25.385,100174,13051,10139,92438,95870
2025-05-29 11:27:25.395,100122,13048,10121,92422,95869
2025-05-29 11:27:25.403,100079,13050,10123,92407,95866
2025-05-29 11:27:25.415,100035,13053,10109,92401,95859
2025-05-29 11:27:25.422,99989,13050,10107,92371,95843
2025-05-29 11:27:25.447,99965,13037,10113,92353,95848
2025-05-29 11:27:25.448,99914,13033,10113,92334,95814
2025-05-29 11:27:25.455,99890,13033,10104,92299,95813
2025-05-29 11:27:25.463,99893,13019,10095,92295,95792
2025-05-29 11:27:25.475,99847,13031,10099,92237,95762
2025-05-29 11:27:25.483,99825,13019,10101,92208,95756
2025-05-29 11:27:25.495,99784,13026,10093,92187,95752
2025-05-29 11:27:25.511,99768,13021,10103,92150,95733
2025-05-29 11:27:25.515,99750,13022,10090,92134,95726
2025-05-29 11:27:25.523,99715,13009,10076,92104,95726
2025-05-29 11:27:25.535,99685,13003,10084,92098,95695
2025-05-29 11:27:25.543,99655,13014,10093,92057,95683
2025-05-29 11:27:25.554,99643,13000,10098,92069,95678
2025-05-29 11:27:25.574,99607,12999,10078,92046,95660
2025-05-29 11:27:25.575,99589,13010,10074,92024,95646
2025-05-29 11:27:25.582,99565,13006,10080,91997,95649
2025-05-29 11:27:25.595,99557,12988,10084,91982,95622
2025-05-29 11:27:25.603,99526,12994,10075,91963,95607
2025-05-29 11:27:25.615,99513,12996,10081,91938,95596
2025-05-29 11:27:25.637,99485,13003,10074,91934,95586
2025-05-29 11:27:25.638,99443,12997,10079,91901,95578
2025-05-29 11:27:25.643,99437,13004,10080,91907,95571
2025-05-29 11:27:25.654,99397,13009,10077,91880,95582
2025-05-29 11:27:25.663,99382,13013,10082,91876,95577
2025-05-29 11:27:25.675,99347,13011,10086,91858,95553
2025-05-29 11:27:25.683,99321,13013,10087,91825,95559
2025-05-29 11:27:25.700,99295,13011,10085,91809,95553
2025-05-29 11:27:25.703,99277,13003,10082,91776,95524
2025-05-29 11:27:25.715,99252,13010,10072,91771,95522
2025-05-29 11:27:25.722,99228,13012,10085,91731,95505
2025-05-29 11:27:25.735,99215,13023,10081,91695,95488
2025-05-29 11:27:25.742,99191,13015,10079,91673,95457
2025-05-29 11:27:25.763,99169,13003,10084,91651,95458
2025-05-29 11:27:25.765,99162,13022,10084,91633,95446
2025-05-29 11:27:25.775,99127,13024,10087,91622,95436
2025-05-29 11:27:25.782,99123,13028,10090,91601,95416
2025-05-29 11:27:25.795,99105,13034,10092,91591,95437
2025-05-29 11:27:25.806,99084,13028,10093,91560,95413
2025-05-29 11:27:25.826,99063,13033,10103,91552,95410
2025-05-29 11:27:25.828,99054,13027,10095,91540,95387
2025-05-29 11:27:25.835,99040,13041,10105,91522,95387
2025-05-29 11:27:25.847,99029,13044,10094,91515,95391
2025-05-29 11:27:25.855,99020,13041,10114,91488,95378
2025-05-29 11:27:25.866,98986,13038,10093,91441,95378
2025-05-29 11:27:25.875,98978,13046,10120,91418,95362
2025-05-29 11:27:25.891,98958,13051,10116,91390,95350
2025-05-29 11:27:25.895,98946,13055,10110,91362,95327
2025-05-29 11:27:25.907,98932,13057,10105,91352,95302
2025-05-29 11:27:25.915,98894,13048,10108,91297,95298
2025-05-29 11:27:25.927,98888,13062,10108,91250,95262
2025-05-29 11:27:25.935,98914,13049,10090,91211,95243
2025-05-29 11:27:25.958,98924,13058,10124,91175,95226
2025-05-29 11:27:25.959,98958,13059,10103,91158,95223
2025-05-29 11:27:25.967,98976,13062,10119,91138,95210
2025-05-29 11:27:25.975,99012,13060,10100,91139,95200
2025-05-29 11:27:25.987,99031,13068,10104,91097,95190
2025-05-29 11:27:25.995,99061,13055,10118,91079,95176
2025-05-29 11:27:26.021,99078,13047,10107,91058,95179
2025-05-29 11:27:26.022,99090,13042,10107,91021,95164
2025-05-29 11:27:26.026,99100,13036,10107,90994,95154
2025-05-29 11:27:26.035,99116,13019,10097,90955,95114
2025-05-29 11:27:26.047,99128,13006,10087,90936,95098
2025-05-29 11:27:26.055,99140,12997,10089,90940,95085
2025-05-29 11:27:26.066,99157,12989,10077,90939,95077
2025-05-29 11:27:26.084,99159,12982,10082,90917,95056
2025-05-29 11:27:26.087,99164,12983,10072,90911,95052
2025-05-29 11:27:26.095,99140,12976,10065,90919,95057
2025-05-29 11:27:26.107,99126,12971,10064,90910,95042
2025-05-29 11:27:26.114,99106,12963,10066,90885,95051
2025-05-29 11:27:26.127,99094,12963,10059,90861,95031
2025-05-29 11:27:26.147,99074,12952,10058,90836,95017
2025-05-29 11:27:26.148,99057,12955,10047,90818,95005
2025-05-29 11:27:26.155,99038,12948,10046,90809,94995
2025-05-29 11:27:26.166,99014,12940,10046,90787,94983
2025-05-29 11:27:26.175,98981,12942,10035,90764,94982
2025-05-29 11:27:26.187,98948,12940,10041,90739,94956
2025-05-29 11:27:26.211,98919,12932,10044,90722,94962
2025-05-29 11:27:26.212,98897,12926,10031,90701,94941
2025-05-29 11:27:26.219,98862,12927,10032,90662,94926
2025-05-29 11:27:26.227,98825,12922,10033,90626,94899
2025-05-29 11:27:26.239,98790,12920,10034,90603,94922
2025-05-29 11:27:26.246,98759,12917,10037,90569,94886
2025-05-29 11:27:26.259,98721,12910,10024,90527,94853
2025-05-29 11:27:26.274,98678,12913,10017,90482,94850
2025-05-29 11:27:26.279,98626,12914,10018,90445,94857
2025-05-29 11:27:26.287,98574,12901,10024,90405,94832
2025-05-29 11:27:26.299,98514,12901,10026,90336,94799
2025-05-29 11:27:26.306,98443,12893,10024,90276,94775
2025-05-29 11:27:26.319,98377,12888,10015,90209,94739
2025-05-29 11:27:26.336,98319,12887,10017,90109,94687
2025-05-29 11:27:26.339,98245,12885,10011,90020,94681
2025-05-29 11:27:26.346,98161,12880,10027,89917,94619
2025-05-29 11:27:26.359,98071,12879,10014,89792,94569
2025-05-29 11:27:26.367,97971,12878,10017,89656,94510
2025-05-29 11:27:26.378,97898,12846,10016,89484,94412
2025-05-29 11:27:26.401,97838,12830,10008,89312,94316
2025-05-29 11:27:26.402,97790,12834,10003,89185,94235
2025-05-29 11:27:26.407,97745,12821,10004,89093,94164
2025-05-29 11:27:26.418,97710,12814,10000,89016,94112
2025-05-29 11:27:26.426,97686,12818,10013,88984,94073
2025-05-29 11:27:26.439,97656,12812,10004,88962,94050
2025-05-29 11:27:26.447,97646,12820,10001,88923,94024
2025-05-29 11:27:26.465,97605,12796,9997,88895,94016
2025-05-29 11:27:26.467,97569,12815,10006,88842,93965
2025-05-29 11:27:26.479,97554,12797,10004,88816,93927
2025-05-29 11:27:26.491,97536,12809,10004,88751,93914
2025-05-29 11:27:26.492,97536,12809,10004,88751,93914
2025-05-29 11:27:26.498,97489,12804,10004,88664,93849
2025-05-29 11:27:26.507,97501,12798,10005,88635,93815
2025-05-29 11:27:26.529,97489,12797,10001,88613,93791
2025-05-29 11:27:26.530,97485,12788,9988,88591,93766
2025-05-29 11:27:26.539,97598,12770,9993,88590,93742
2025-05-29 11:27:26.547,97769,12781,9988,88640,93700
2025-05-29 11:27:26.559,97941,12780,9987,88773,93737
2025-05-29 11:27:26.568,98120,12790,9984,89011,93821
2025-05-29 11:27:26.592,98255,12790,9980,89267,93910
2025-05-29 11:27:26.593,98387,12793,9973,89475,94029
2025-05-29 11:27:26.598,98522,12809,9987,89684,94102
2025-05-29 11:27:26.607,98648,12826,9997,89876,94187
2025-05-29 11:27:26.619,98771,12838,10000,90077,94259
2025-05-29 11:27:26.630,98882,12859,10017,90234,94323
2025-05-29 11:27:26.639,98978,12865,10020,90415,94393
2025-05-29 11:27:26.656,99071,12882,10029,90549,94463
2025-05-29 11:27:26.658,99169,12898,10037,90683,94529
2025-05-29 11:27:26.671,99246,12905,10052,90823,94584
2025-05-29 11:27:26.680,99345,12929,10062,90938,94624
2025-05-29 11:27:26.690,99401,12927,10068,91046,94666
2025-05-29 11:27:26.699,99491,12942,10075,91151,94717
2025-05-29 11:27:26.719,99563,12952,10086,91253,94780
2025-05-29 11:27:26.720,99626,12964,10088,91344,94797
2025-05-29 11:27:26.731,99695,12974,10094,91404,94830
2025-05-29 11:27:26.738,99738,12994,10114,91484,94869
2025-05-29 11:27:26.750,99785,13002,10122,91548,94904
2025-05-29 11:27:26.759,99842,12997,10121,91603,94924
2025-05-29 11:27:26.782,99889,13018,10122,91650,94970
2025-05-29 11:27:26.784,99895,13025,10125,91707,94992
2025-05-29 11:27:26.791,99927,13036,10143,91767,95026
2025-05-29 11:27:26.799,99955,13058,10129,91812,95068
2025-05-29 11:27:26.810,99952,13057,10139,91844,95083
2025-05-29 11:27:26.819,99988,13059,10149,91854,95071
2025-05-29 11:27:26.830,100025,13070,10143,91887,95098
2025-05-29 11:27:26.845,100063,13075,10153,91910,95131
2025-05-29 11:27:26.850,100109,13084,10158,91926,95129
2025-05-29 11:27:26.859,100137,13096,10170,91954,95161
2025-05-29 11:27:26.870,100167,13100,10174,91982,95169
2025-05-29 11:27:26.879,100205,13117,10187,91996,95191
2025-05-29 11:27:26.891,100253,13123,10195,92018,95201
2025-05-29 11:27:26.909,100275,13140,10186,92031,95212
2025-05-29 11:27:26.911,100330,13138,10192,92046,95219
2025-05-29 11:27:26.922,100378,13153,10201,92055,95216
2025-05-29 11:27:26.930,100405,13151,10216,92062,95222
2025-05-29 11:27:26.943,100452,13168,10211,92092,95245
2025-05-29 11:27:26.950,100468,13172,10223,92118,95224
2025-05-29 11:27:26.972,100534,13182,10234,92137,95254
2025-05-29 11:27:26.974,100552,13198,10231,92171,95266
2025-05-29 11:27:26.983,100577,13185,10239,92171,95273
2025-05-29 11:27:26.990,100623,13197,10232,92182,95295
2025-05-29 11:27:27.003,100650,13206,10242,92191,95289
2025-05-29 11:27:27.010,100687,13196,10235,92232,95311
2025-05-29 11:27:27.036,100728,13180,10241,92232,95306
2025-05-29 11:27:27.038,100759,13201,10236,92255,95319
2025-05-29 11:27:27.042,100788,13174,10239,92266,95316
2025-05-29 11:27:27.051,100812,13179,10238,92271,95332
2025-05-29 11:27:27.063,100854,13172,10230,92298,95332
2025-05-29 11:27:27.071,100843,13178,10228,92287,95334
2025-05-29 11:27:27.082,100871,13176,10225,92303,95335
2025-05-29 11:27:27.099,100898,13167,10223,92311,95364
2025-05-29 11:27:27.103,100897,13161,10221,92308,95355
2025-05-29 11:27:27.111,100920,13153,10214,92306,95365
2025-05-29 11:27:27.123,100943,13159,10220,92323,95354
2025-05-29 11:27:27.131,100947,13147,10214,92323,95365
2025-05-29 11:27:27.142,100958,13156,10207,92337,95363
2025-05-29 11:27:27.162,100966,13158,10214,92362,95369
2025-05-29 11:27:27.164,100969,13148,10208,92376,95396
2025-05-29 11:27:27.175,100985,13153,10209,92385,95388
2025-05-29 11:27:27.182,100991,13161,10204,92391,95407
2025-05-29 11:27:27.194,101006,13145,10203,92406,95402
2025-05-29 11:27:27.203,101018,13161,10199,92422,95410
2025-05-29 11:27:27.225,101034,13154,10198,92412,95401
2025-05-29 11:27:27.227,101027,13155,10206,92430,95420
2025-05-29 11:27:27.234,101052,13150,10196,92429,95409
2025-05-29 11:27:27.243,101080,13149,10206,92421,95427
2025-05-29 11:27:27.254,101111,13149,10201,92441,95413
2025-05-29 11:27:27.263,101133,13151,10202,92439,95415
2025-05-29 11:27:27.274,101140,13157,10198,92438,95425
2025-05-29 11:27:27.289,101170,13158,10204,92433,95416
2025-05-29 11:27:27.295,101182,13152,10201,92445,95419
2025-05-29 11:27:27.302,101197,13160,10187,92468,95421
2025-05-29 11:27:27.314,101233,13159,10209,92473,95439
2025-05-29 11:27:27.322,101247,13155,10200,92455,95424
2025-05-29 11:27:27.334,101256,13152,10207,92487,95435
2025-05-29 11:27:27.351,101290,13157,10184,92484,95445
2025-05-29 11:27:27.354,101297,13154,10200,92484,95441
2025-05-29 11:27:27.363,101327,13151,10195,92482,95425
2025-05-29 11:27:27.375,101346,13154,10190,92479,95425
2025-05-29 11:27:27.382,101390,13157,10184,92483,95426
2025-05-29 11:27:27.395,101409,13167,10200,92473,95428
2025-05-29 11:27:27.416,101430,13174,10182,92493,95426
2025-05-29 11:27:27.417,101466,13167,10200,92511,95439
2025-05-29 11:27:27.423,101459,13162,10202,92532,95438
2025-05-29 11:27:27.434,101472,13163,10204,92530,95450
2025-05-29 11:27:27.443,101490,13174,10210,92550,95457
2025-05-29 11:27:27.455,101527,13182,10210,92556,95465
2025-05-29 11:27:27.479,101524,13185,10214,92550,95480
2025-05-29 11:27:27.481,101533,13188,10213,92564,95487
2025-05-29 11:27:27.487,101556,13188,10220,92558,95483
2025-05-29 11:27:27.494,101548,13199,10220,92579,95492
2025-05-29 11:27:27.507,101585,13210,10229,92586,95491
2025-05-29 11:27:27.515,101594,13204,10239,92590,95506
2025-05-29 11:27:27.526,101608,13222,10230,92582,95488
2025-05-29 11:27:27.543,101589,13220,10236,92593,95513
2025-05-29 11:27:27.547,101617,13223,10235,92596,95530
2025-05-29 11:27:27.555,101605,13233,10235,92601,95536
2025-05-29 11:27:27.567,101612,13240,10242,92594,95554
2025-05-29 11:27:27.574,101617,13248,10236,92624,95555
2025-05-29 11:27:27.587,101629,13250,10255,92611,95569
2025-05-29 11:27:27.606,101628,13258,10248,92623,95571
2025-05-29 11:27:27.607,101635,13261,10247,92618,95566
2025-05-29 11:27:27.615,101641,13262,10249,92629,95575
2025-05-29 11:27:27.627,101642,13273,10257,92630,95584
2025-05-29 11:27:27.635,101634,13273,10258,92636,95575
2025-05-29 11:27:27.646,101652,13288,10263,92628,95597
2025-05-29 11:27:27.655,101658,13291,10263,92626,95595
2025-05-29 11:27:27.670,101658,13290,10269,92636,95604
2025-05-29 11:27:27.675,101655,13305,10269,92617,95604
2025-05-29 11:27:27.686,101680,13304,10264,92608,95618
2025-05-29 11:27:27.699,101654,13308,10274,92618,95612
2025-05-29 11:27:27.700,101654,13308,10274,92618,95612
2025-05-29 11:27:27.706,101688,13321,10283,92631,95633
2025-05-29 11:27:27.713,101657,13324,10289,92629,95638
2025-05-29 11:27:27.733,101667,13330,10278,92633,95641
2025-05-29 11:27:27.739,101660,13348,10284,92608,95655
2025-05-29 11:27:27.746,101663,13345,10287,92612,95636
2025-05-29 11:27:27.759,101674,13351,10296,92603,95649
2025-05-29 11:27:27.766,101671,13353,10289,92594,95646
2025-05-29 11:27:27.779,101673,13358,10287,92600,95632
2025-05-29 11:27:27.796,101671,13373,10294,92602,95648
2025-05-29 11:27:27.799,101679,13371,10295,92603,95649
2025-05-29 11:27:27.806,101690,13366,10304,92608,95649
2025-05-29 11:27:27.819,101699,13370,10285,92592,95633
2025-05-29 11:27:27.826,101709,13383,10304,92609,95638
2025-05-29 11:27:27.838,101710,13379,10305,92587,95644
2025-05-29 11:27:27.859,101712,13365,10299,92583,95640
2025-05-29 11:27:27.860,101714,13363,10296,92599,95629
2025-05-29 11:27:27.867,101730,13373,10294,92593,95642
2025-05-29 11:27:27.879,101731,13366,10283,92575,95627
2025-05-29 11:27:27.886,101730,13353,10290,92582,95630
2025-05-29 11:27:27.898,101726,13343,10275,92589,95640
2025-05-29 11:27:27.907,101719,13334,10266,92575,95647
2025-05-29 11:27:27.922,101734,13336,10269,92560,95618
2025-05-29 11:27:27.926,101729,13330,10249,92556,95621
2025-05-29 11:27:27.939,101705,13320,10257,92561,95607
2025-05-29 11:27:27.946,101707,13326,10252,92563,95612
2025-05-29 11:27:27.959,101699,13321,10253,92557,95609
2025-05-29 11:27:27.967,101693,13322,10252,92581,95632
2025-05-29 11:27:27.985,101688,13326,10252,92559,95622
2025-05-29 11:27:27.986,101675,13312,10244,92561,95632
2025-05-29 11:27:27.999,101671,13318,10248,92570,95634
2025-05-29 11:27:28.011,101645,13314,10237,92561,95619
2025-05-29 11:27:28.019,101640,13311,10240,92552,95628
2025-05-29 11:27:28.030,101624,13320,10240,92560,95617
2025-05-29 11:27:28.048,101624,13321,10230,92555,95631
2025-05-29 11:27:28.050,101585,13319,10234,92562,95635
2025-05-29 11:27:28.059,101591,13322,10236,92564,95644
2025-05-29 11:27:28.071,101557,13320,10223,92547,95633
2025-05-29 11:27:28.079,101560,13327,10220,92558,95640
2025-05-29 11:27:28.090,101537,13322,10232,92551,95635
2025-05-29 11:27:28.111,101552,13330,10222,92549,95632
2025-05-29 11:27:28.112,101524,13313,10235,92538,95620
2025-05-29 11:27:28.118,101536,13339,10224,92540,95619
2025-05-29 11:27:28.131,101536,13333,10224,92540,95619
2025-05-29 11:27:28.139,101522,13340,10225,92519,95605
2025-05-29 11:27:28.150,101535,13345,10225,92533,95607
2025-05-29 11:27:28.158,101518,13342,10235,92521,95620
2025-05-29 11:27:28.174,101515,13335,10217,92514,95622
2025-05-29 11:27:28.178,101518,13339,10225,92503,95623
2025-05-29 11:27:28.190,101513,13338,10223,92501,95605
2025-05-29 11:27:28.199,101538,13345,10227,92488,95602
2025-05-29 11:27:28.210,101512,13340,10222,92491,95616
2025-05-29 11:27:28.218,101508,13353,10242,92487,95630
2025-05-29 11:27:28.237,101518,13358,10224,92504,95623
2025-05-29 11:27:28.238,101503,13351,10231,92486,95605
2025-05-29 11:27:28.251,101493,13351,10234,92495,95619
2025-05-29 11:27:28.262,101485,13348,10220,92480,95612
2025-05-29 11:27:28.270,101481,13364,10227,92488,95614
2025-05-29 11:27:28.282,101474,13371,10231,92486,95616
2025-05-29 11:27:28.300,101465,13370,10240,92489,95628
2025-05-29 11:27:28.303,101450,13376,10241,92494,95620
2025-05-29 11:27:28.311,101442,13371,10234,92490,95623
2025-05-29 11:27:28.323,101430,13378,10238,92477,95618
2025-05-29 11:27:28.331,101424,13395,10240,92480,95625
2025-05-29 11:27:28.342,101420,13396,10238,92486,95631
2025-05-29 11:27:28.365,101410,13399,10242,92475,95636
2025-05-29 11:27:28.366,101392,13406,10241,92473,95620
2025-05-29 11:27:28.370,101364,13407,10245,92467,95629
2025-05-29 11:27:28.382,101364,13416,10252,92477,95643
2025-05-29 11:27:28.390,101370,13421,10255,92464,95632
2025-05-29 11:27:28.402,101372,13429,10254,92462,95634
2025-05-29 11:27:28.411,101346,13436,10255,92460,95631
2025-05-29 11:27:28.428,101348,13445,10260,92457,95657
2025-05-29 11:27:28.431,101331,13446,10266,92444,95658
2025-05-29 11:27:28.442,101333,13448,10255,92456,95661
2025-05-29 11:27:28.451,101317,13451,10258,92414,95634
2025-05-29 11:27:28.462,101315,13456,10262,92422,95640
2025-05-29 11:27:28.471,101328,13461,10265,92413,95625
2025-05-29 11:27:28.491,101314,13470,10273,92415,95623
2025-05-29 11:27:28.492,101322,13476,10272,92401,95610
2025-05-29 11:27:28.503,101339,13479,10284,92340,95597
2025-05-29 11:27:28.510,101348,13483,10278,92363,95583
2025-05-29 11:27:28.522,101333,13500,10290,92338,95568
2025-05-29 11:27:28.530,101349,13499,10290,92325,95569
2025-05-29 11:27:28.554,101349,13498,10292,92313,95580
2025-05-29 11:27:28.556,101340,13503,10272,92312,95563
2025-05-29 11:27:28.563,101345,13516,10302,92295,95572
2025-05-29 11:27:28.575,101340,13520,10304,92290,95554
2025-05-29 11:27:28.583,101341,13520,10303,92290,95554
2025-05-29 11:27:28.594,101338,13526,10292,92278,95569
2025-05-29 11:27:28.602,101319,13521,10305,92271,95557
2025-05-29 11:27:28.617,101318,13519,10290,92236,95551
2025-05-29 11:27:28.623,101318,13524,10301,92238,95558
2025-05-29 11:27:28.634,101315,13510,10294,92219,95541
2025-05-29 11:27:28.643,101308,13502,10291,92209,95527
2025-05-29 11:27:28.654,101314,13500,10281,92198,95523
2025-05-29 11:27:28.663,101286,13504,10278,92190,95525
2025-05-29 11:27:28.680,101301,13500,10278,92173,95523
2025-05-29 11:27:28.683,101273,13491,10262,92165,95516
2025-05-29 11:27:28.695,101278,13482,10262,92171,95511
2025-05-29 11:27:28.703,101251,13488,10256,92153,95515
2025-05-29 11:27:28.715,101250,13489,10257,92161,95525
2025-05-29 11:27:28.723,101205,13477,10252,92142,95528
2025-05-29 11:27:28.744,101177,13475,10238,92133,95515
2025-05-29 11:27:28.745,101149,13476,10231,92128,95524
2025-05-29 11:27:28.754,101100,13469,10229,92098,95511
2025-05-29 11:27:28.762,101082,13475,10228,92075,95484
2025-05-29 11:27:28.774,101054,13454,10221,92045,95498
2025-05-29 11:27:28.783,101046,13464,10211,92040,95474
2025-05-29 11:27:28.808,101004,13459,10217,92033,95486
2025-05-29 11:27:28.809,100975,13459,10213,92001,95477
2025-05-29 11:27:28.814,100958,13454,10210,91985,95472
2025-05-29 11:27:28.826,100936,13467,10202,91948,95468
2025-05-29 11:27:28.835,100907,13457,10187,91953,95493
2025-05-29 11:27:28.846,100863,13463,10189,91957,95475
2025-05-29 11:27:28.854,100820,13447,10195,91950,95487
2025-05-29 11:27:28.871,100801,13449,10186,91911,95488
2025-05-29 11:27:28.875,100760,13455,10185,91888,95465
2025-05-29 11:27:28.886,100735,13446,10180,91892,95455
2025-05-29 11:27:28.896,100676,13451,10173,91851,95455
2025-05-29 11:27:28.906,100651,13447,10180,91817,95451
2025-05-29 11:27:28.910,100651,13447,10180,91817,95451
2025-05-29 11:27:28.914,100621,13441,10161,91761,95397
2025-05-29 11:27:28.936,100572,13436,10164,91718,95391
2025-05-29 11:27:28.937,100563,13419,10155,91694,95376
2025-05-29 11:27:28.947,100536,13433,10150,91698,95370
2025-05-29 11:27:28.954,100518,13436,10163,91669,95357
2025-05-29 11:27:28.967,100494,13431,10152,91663,95327
2025-05-29 11:27:28.974,100482,13427,10159,91639,95344
2025-05-29 11:27:28.999,100463,13431,10158,91610,95317
2025-05-29 11:27:29.000,100439,13414,10156,91587,95321
2025-05-29 11:27:29.006,100424,13444,10159,91580,95295
2025-05-29 11:27:29.014,100408,13428,10157,91566,95290
2025-05-29 11:27:29.027,100388,13447,10157,91543,95300
2025-05-29 11:27:29.034,100398,13442,10156,91515,95277
2025-05-29 11:27:29.047,100368,13454,10158,91494,95276
2025-05-29 11:27:29.063,100347,13438,10152,91474,95252
2025-05-29 11:27:29.067,100319,13451,10158,91464,95247
2025-05-29 11:27:29.078,100323,13443,10168,91479,95242
2025-05-29 11:27:29.087,100297,13445,10161,91454,95250
2025-05-29 11:27:29.099,100278,13455,10163,91465,95246
2025-05-29 11:27:29.106,100260,13439,10162,91446,95239
2025-05-29 11:27:29.127,100232,13443,10163,91444,95241
2025-05-29 11:27:29.128,100192,13446,10164,91434,95242
2025-05-29 11:27:29.139,100168,13444,10169,91396,95219
2025-05-29 11:27:29.146,100145,13445,10163,91376,95214
2025-05-29 11:27:29.159,100122,13460,10170,91364,95211
2025-05-29 11:27:29.166,100089,13465,10171,91342,95215
2025-05-29 11:27:29.189,100078,13465,10170,91331,95203
2025-05-29 11:27:29.190,100057,13480,10174,91307,95207
2025-05-29 11:27:29.198,100047,13485,10172,91282,95196
2025-05-29 11:27:29.206,100034,13488,10183,91264,95183
2025-05-29 11:27:29.219,100018,13497,10178,91252,95177
2025-05-29 11:27:29.226,100001,13490,10180,91230,95164
2025-05-29 11:27:29.252,100002,13510,10185,91219,95172
2025-05-29 11:27:29.253,99984,13500,10178,91202,95150
2025-05-29 11:27:29.258,99967,13520,10189,91189,95164
2025-05-29 11:27:29.267,99956,13504,10188,91176,95139
2025-05-29 11:27:29.279,99952,13513,10190,91171,95144
2025-05-29 11:27:29.286,99922,13523,10193,91167,95142
2025-05-29 11:27:29.298,99913,13513,10180,91153,95135
2025-05-29 11:27:29.315,99907,13524,10200,91131,95150
2025-05-29 11:27:29.319,99891,13529,10196,91133,95118
2025-05-29 11:27:29.326,99887,13528,10221,91122,95112
2025-05-29 11:27:29.338,99878,13535,10196,91124,95118
2025-05-29 11:27:29.347,99864,13545,10222,91122,95120
2025-05-29 11:27:29.358,99847,13547,10217,91115,95116
2025-05-29 11:27:29.379,99852,13547,10233,91098,95115
2025-05-29 11:27:29.380,99834,13555,10214,91093,95112
2025-05-29 11:27:29.387,99864,13556,10226,91076,95118
2025-05-29 11:27:29.398,99844,13554,10217,91043,95087
2025-05-29 11:27:29.406,99843,13572,10228,91043,95085
2025-05-29 11:27:29.419,99863,13551,10215,91035,95080
2025-05-29 11:27:29.443,99865,13562,10212,91013,95075
2025-05-29 11:27:29.444,99859,13557,10221,91017,95061
2025-05-29 11:27:29.450,99871,13548,10203,91004,95060
2025-05-29 11:27:29.458,99878,13540,10205,90988,95052
2025-05-29 11:27:29.470,99889,13530,10193,90993,95041
2025-05-29 11:27:29.478,99885,13525,10192,90987,95055
2025-05-29 11:27:29.490,99869,13521,10189,90993,95033
2025-05-29 11:27:29.506,99872,13500,10177,90987,95033
2025-05-29 11:27:29.511,99866,13512,10186,90991,95046
2025-05-29 11:27:29.519,99847,13499,10177,90976,95047
2025-05-29 11:27:29.531,99845,13490,10188,90970,95035
2025-05-29 11:27:29.539,99836,13495,10187,90966,95039
2025-05-29 11:27:29.549,99820,13488,10183,90955,95027
2025-05-29 11:27:29.570,99806,13484,10188,90932,95040
2025-05-29 11:27:29.572,99795,13476,10164,90921,95016
2025-05-29 11:27:29.579,99793,13476,10188,90907,95020
2025-05-29 11:27:29.590,99783,13468,10171,90890,95020
2025-05-29 11:27:29.599,99756,13461,10173,90877,95003
2025-05-29 11:27:29.610,99733,13466,10161,90883,94980
2025-05-29 11:27:29.618,99710,13457,10156,90869,94988
2025-05-29 11:27:29.633,99689,13448,10154,90852,94972
2025-05-29 11:27:29.639,99692,13449,10164,90840,94985
2025-05-29 11:27:29.650,99649,13449,10147,90850,94991
2025-05-29 11:27:29.658,99620,13456,10150,90828,94994
2025-05-29 11:27:29.671,99581,13436,10147,90822,94983
2025-05-29 11:27:29.678,99562,13453,10146,90805,94990
2025-05-29 11:27:29.696,99524,13433,10153,90780,94968
2025-05-29 11:27:29.699,99513,13438,10149,90756,94935
2025-05-29 11:27:29.710,99499,13427,10135,90738,94922
2025-05-29 11:27:29.719,99505,13435,10125,90711,94913
2025-05-29 11:27:29.731,99505,13429,10145,90698,94914
2025-05-29 11:27:29.738,99488,13444,10142,90680,94902
2025-05-29 11:27:29.760,99479,13428,10133,90673,94904
2025-05-29 11:27:29.761,99462,13427,10135,90669,94882
2025-05-29 11:27:29.769,99460,13427,10127,90644,94874
2025-05-29 11:27:29.778,99454,13431,10127,90671,94864
2025-05-29 11:27:29.790,99447,13423,10130,90658,94853
2025-05-29 11:27:29.798,99458,13417,10114,90658,94864
2025-05-29 11:27:29.823,99475,13417,10131,90648,94833
2025-05-29 11:27:29.825,99490,13422,10134,90650,94855
2025-05-29 11:27:29.830,99484,13422,10132,90652,94837
2025-05-29 11:27:29.843,99519,13426,10129,90654,94841
2025-05-29 11:27:29.850,99538,13416,10137,90652,94844
2025-05-29 11:27:29.862,99567,13416,10144,90664,94851
2025-05-29 11:27:29.870,99607,13425,10142,90677,94855
2025-05-29 11:27:29.886,99634,13443,10143,90700,94863
2025-05-29 11:27:29.890,99667,13439,10149,90708,94874
2025-05-29 11:27:29.902,99702,13442,10151,90735,94882
2025-05-29 11:27:29.910,99722,13448,10165,90758,94903
2025-05-29 11:27:29.922,99740,13453,10163,90808,94910
2025-05-29 11:27:29.930,99771,13457,10165,90827,94912
2025-05-29 11:27:29.952,99759,13460,10182,90836,94926
2025-05-29 11:27:29.953,99803,13471,10181,90851,94935
2025-05-29 11:27:29.962,99828,13472,10182,90870,94952
2025-05-29 11:27:29.971,99827,13477,10182,90897,94968
2025-05-29 11:27:29.983,99864,13466,10192,90905,94966
2025-05-29 11:27:29.990,99884,13476,10192,90906,94990
2025-05-29 11:27:30.016,99884,13493,10195,90960,95004
2025-05-29 11:27:30.018,99911,13487,10199,90946,95005
2025-05-29 11:27:30.022,99957,13497,10200,90973,95012
2025-05-29 11:27:30.030,99999,13504,10198,90962,95021
2025-05-29 11:27:30.043,100022,13505,10215,90998,95016
2025-05-29 11:27:30.051,100071,13503,10213,91015,95043
2025-05-29 11:27:30.062,100120,13505,10215,91055,95054
2025-05-29 11:27:30.080,100164,13519,10227,91068,95050
2025-05-29 11:27:30.082,100199,13529,10237,91099,95064
2025-05-29 11:27:30.090,100246,13529,10238,91107,95080
2025-05-29 11:27:30.102,100286,13529,10227,91121,95094
2025-05-29 11:27:30.114,100309,13540,10249,91170,95083
2025-05-29 11:27:30.115,100309,13540,10249,91170,95083
2025-05-29 11:27:30.123,100376,13554,10251,91208,95143
2025-05-29 11:27:30.142,100417,13555,10257,91236,95156
2025-05-29 11:27:30.143,100466,13562,10271,91262,95165
2025-05-29 11:27:30.150,100516,13567,10269,91266,95162
2025-05-29 11:27:30.162,100544,13570,10272,91315,95173
2025-05-29 11:27:30.175,100591,13583,10288,91344,95185
2025-05-29 11:27:30.182,100618,13579,10297,91365,95208
2025-05-29 11:27:30.206,100650,13597,10298,91409,95221
2025-05-29 11:27:30.207,100691,13594,10294,91421,95227
2025-05-29 11:27:30.214,100735,13600,10308,91442,95238
2025-05-29 11:27:30.222,100752,13605,10315,91466,95246
2025-05-29 11:27:30.234,100824,13608,10318,91481,95243
2025-05-29 11:27:30.241,100842,13615,10322,91509,95257
2025-05-29 11:27:30.254,100884,13625,10324,91518,95256
2025-05-29 11:27:30.270,100918,13625,10333,91533,95259
2025-05-29 11:27:30.273,100970,13622,10333,91541,95253
2025-05-29 11:27:30.282,101021,13635,10353,91569,95280
2025-05-29 11:27:30.294,101078,13637,10343,91590,95276
2025-05-29 11:27:30.302,101125,13631,10356,91615,95299
2025-05-29 11:27:30.314,101171,13629,10347,91632,95313
2025-05-29 11:27:30.333,101201,13625,10355,91654,95323
2025-05-29 11:27:30.335,101240,13624,10356,91654,95326
2025-05-29 11:27:30.343,101274,13611,10355,91677,95322
2025-05-29 11:27:30.354,101316,13605,10343,91667,95325
2025-05-29 11:27:30.362,101362,13606,10338,91675,95325
2025-05-29 11:27:30.374,101400,13595,10343,91668,95352
2025-05-29 11:27:30.381,101436,13579,10339,91675,95308
2025-05-29 11:27:30.397,101487,13572,10333,91670,95310
2025-05-29 11:27:30.402,101535,13566,10332,91667,95277
2025-05-29 11:27:30.414,101580,13563,10331,91674,95289
2025-05-29 11:27:30.426,101622,13551,10335,91665,95257
2025-05-29 11:27:30.433,101668,13553,10344,91652,95236
2025-05-29 11:27:30.460,101716,13557,10335,91673,95257
2025-05-29 11:27:30.461,101737,13549,10346,91679,95259
2025-05-29 11:27:30.467,101790,13556,10341,91706,95260
2025-05-29 11:27:30.474,101813,13553,10346,91725,95272
2025-05-29 11:27:30.486,101861,13549,10353,91738,95289
2025-05-29 11:27:30.494,101884,13556,10362,91749,95270
2025-05-29 11:27:30.505,101898,13554,10364,91788,95286
2025-05-29 11:27:30.523,101915,13560,10364,91805,95315
2025-05-29 11:27:30.526,101922,13560,10363,91834,95306
2025-05-29 11:27:30.534,101963,13554,10369,91860,95331
2025-05-29 11:27:30.547,101973,13557,10373,91868,95355
2025-05-29 11:27:30.555,101991,13561,10368,91881,95356
2025-05-29 11:27:30.566,101985,13557,10366,91889,95356
2025-05-29 11:27:30.587,102000,13550,10372,91881,95347
2025-05-29 11:27:30.588,102028,13555,10378,91892,95364
2025-05-29 11:27:30.594,102052,13546,10370,91907,95360
2025-05-29 11:27:30.606,102064,13554,10367,91900,95355
2025-05-29 11:27:30.615,102088,13550,10368,91896,95334
2025-05-29 11:27:30.626,102129,13564,10369,91902,95344
2025-05-29 11:27:30.634,102159,13553,10376,91905,95332
2025-05-29 11:27:30.650,102183,13561,10372,91940,95340
2025-05-29 11:27:30.654,102209,13559,10383,91947,95355
2025-05-29 11:27:30.666,102214,13556,10389,91956,95360
2025-05-29 11:27:30.679,102230,13563,10385,91980,95377
2025-05-29 11:27:30.686,102245,13561,10386,91996,95387
2025-05-29 11:27:30.699,102237,13570,10385,92026,95402
2025-05-29 11:27:30.714,102258,13564,10383,92044,95398
2025-05-29 11:27:30.718,102279,13562,10393,92050,95416
2025-05-29 11:27:30.726,102282,13566,10395,92070,95405
2025-05-29 11:27:30.738,102292,13571,10387,92087,95428
2025-05-29 11:27:30.746,102307,13575,10392,92114,95432
2025-05-29 11:27:30.758,102302,13579,10396,92089,95436
2025-05-29 11:27:30.778,102322,13585,10410,92101,95453
2025-05-29 11:27:30.779,102348,13590,10397,92112,95466
2025-05-29 11:27:30.786,102360,13581,10404,92120,95485
2025-05-29 11:27:30.798,102367,13585,10400,92136,95488
2025-05-29 11:27:30.806,102375,13608,10419,92143,95504
2025-05-29 11:27:30.818,102388,13605,10426,92145,95507
2025-05-29 11:27:30.826,102409,13605,10418,92147,95507
2025-05-29 11:27:30.842,102438,13606,10423,92143,95507
2025-05-29 11:27:30.847,102439,13605,10424,92146,95482
2025-05-29 11:27:30.857,102466,13615,10426,92146,95495
2025-05-29 11:27:30.866,102488,13621,10421,92151,95501
2025-05-29 11:27:30.878,102512,13626,10436,92165,95499
2025-05-29 11:27:30.886,102506,13634,10443,92178,95508
2025-05-29 11:27:30.906,102520,13643,10445,92182,95520
2025-05-29 11:27:30.907,102541,13638,10447,92179,95525
2025-05-29 11:27:30.918,102526,13647,10448,92189,95519
2025-05-29 11:27:30.926,102546,13650,10452,92187,95525
2025-05-29 11:27:30.938,102561,13657,10453,92193,95530
2025-05-29 11:27:30.950,102581,13661,10464,92184,95527
2025-05-29 11:27:30.970,102599,13670,10456,92193,95530
2025-05-29 11:27:30.971,102599,13672,10476,92192,95540
2025-05-29 11:27:30.978,102609,13680,10477,92200,95524
2025-05-29 11:27:30.990,102604,13674,10476,92198,95528
2025-05-29 11:27:30.998,102623,13691,10478,92203,95535
2025-05-29 11:27:31.009,102619,13695,10482,92198,95560
2025-05-29 11:27:31.018,102636,13696,10482,92216,95561
2025-05-29 11:27:31.034,102645,13703,10493,92225,95547
2025-05-29 11:27:31.038,102649,13709,10493,92230,95560
2025-05-29 11:27:31.050,102640,13711,10501,92221,95575
2025-05-29 11:27:31.058,102642,13725,10507,92229,95562
2025-05-29 11:27:31.070,102636,13715,10495,92250,95573
2025-05-29 11:27:31.078,102648,13713,10499,92243,95577
2025-05-29 11:27:31.096,102650,13708,10494,92241,95576
2025-05-29 11:27:31.098,102646,13708,10493,92247,95579
2025-05-29 11:27:31.111,102652,13691,10484,92247,95566
2025-05-29 11:27:31.118,102631,13686,10489,92235,95574
2025-05-29 11:27:31.130,102650,13680,10477,92242,95552
2025-05-29 11:27:31.138,102635,13677,10475,92232,95558
2025-05-29 11:27:31.161,102651,13670,10465,92241,95546
2025-05-29 11:27:31.162,102644,13658,10468,92223,95561
2025-05-29 11:27:31.170,102651,13663,10460,92225,95568
2025-05-29 11:27:31.178,102644,13661,10460,92226,95559
2025-05-29 11:27:31.190,102660,13655,10458,92231,95579
2025-05-29 11:27:31.197,102657,13665,10457,92225,95560
2025-05-29 11:27:31.210,102640,13656,10454,92208,95553
2025-05-29 11:27:31.226,102646,13644,10456,92199,95549
2025-05-29 11:27:31.230,102646,13645,10443,92200,95524
2025-05-29 11:27:31.238,102654,13644,10446,92199,95531
2025-05-29 11:27:31.250,102679,13652,10450,92198,95536
2025-05-29 11:27:31.257,102653,13651,10452,92207,95529
2025-05-29 11:27:31.270,102653,13651,10452,92207,95529
2025-05-29 11:27:31.290,102635,13647,10443,92210,95541
2025-05-29 11:27:31.291,102632,13655,10461,92219,95559
2025-05-29 11:27:31.302,102629,13642,10455,92212,95548
2025-05-29 11:27:31.310,102613,13652,10453,92207,95547
2025-05-29 11:27:31.322,102605,13656,10453,92212,95538
2025-05-29 11:27:31.325,102605,13656,10453,92212,95538
2025-05-29 11:27:31.329,102605,13656,10453,92212,95538
2025-05-29 11:27:31.331,102611,13652,10450,92170,95512
2025-05-29 11:27:31.354,102609,13651,10450,92164,95510
2025-05-29 11:27:31.355,102620,13652,10453,92160,95516
2025-05-29 11:27:31.362,102627,13663,10454,92156,95509
2025-05-29 11:27:31.369,102626,13650,10454,92173,95501
2025-05-29 11:27:31.381,102614,13658,10457,92177,95519
2025-05-29 11:27:31.390,102603,13653,10456,92162,95503
2025-05-29 11:27:31.402,102612,13667,10456,92170,95524
2025-05-29 11:27:31.417,102616,13655,10456,92169,95529
2025-05-29 11:27:31.423,102591,13661,10455,92151,95522
2025-05-29 11:27:31.430,102583,13664,10446,92169,95513
2025-05-29 11:27:31.442,102597,13657,10458,92160,95530
2025-05-29 11:27:31.451,102599,13674,10459,92155,95528
2025-05-29 11:27:31.462,102579,13670,10468,92151,95514
2025-05-29 11:27:31.482,102596,13676,10468,92157,95513
2025-05-29 11:27:31.483,102597,13683,10465,92170,95532
2025-05-29 11:27:31.490,102580,13684,10461,92168,95521
2025-05-29 11:27:31.501,102576,13683,10472,92184,95550
2025-05-29 11:27:31.510,102553,13695,10468,92162,95547
2025-05-29 11:27:31.521,102549,13689,10477,92165,95555
2025-05-29 11:27:31.530,102549,13714,10484,92182,95553
2025-05-29 11:27:31.545,102540,13713,10479,92169,95572
2025-05-29 11:27:31.554,102530,13712,10475,92167,95560
2025-05-29 11:27:31.561,102543,13697,10475,92147,95573
2025-05-29 11:27:31.574,102539,13710,10481,92137,95569
2025-05-29 11:27:31.581,102540,13726,10485,92118,95585
2025-05-29 11:27:31.594,102531,13737,10482,92101,95570
2025-05-29 11:27:31.608,102537,13730,10494,92071,95571
2025-05-29 11:27:31.614,102540,13723,10490,92058,95562
2025-05-29 11:27:31.622,102537,13741,10497,92036,95579
2025-05-29 11:27:31.634,102545,13728,10507,92016,95549
2025-05-29 11:27:31.642,102536,13747,10504,91984,95565
2025-05-29 11:27:31.654,102543,13752,10503,92002,95554
2025-05-29 11:27:31.672,102555,13763,10506,91989,95563
2025-05-29 11:27:31.673,102556,13754,10507,91979,95541
2025-05-29 11:27:31.682,102554,13760,10510,91978,95536
2025-05-29 11:27:31.693,102551,13769,10515,91982,95556
2025-05-29 11:27:31.702,102520,13781,10517,91989,95564
2025-05-29 11:27:31.714,102533,13790,10520,91989,95563
2025-05-29 11:27:31.736,102524,13798,10531,91986,95562
2025-05-29 11:27:31.737,102509,13786,10523,91970,95586
2025-05-29 11:27:31.742,102508,13784,10522,91989,95575
2025-05-29 11:27:31.753,102477,13787,10528,91971,95580
2025-05-29 11:27:31.762,102481,13791,10524,91967,95575
2025-05-29 11:27:31.774,102455,13792,10516,91965,95584
2025-05-29 11:27:31.782,102441,13785,10517,91945,95564
2025-05-29 11:27:31.799,102432,13784,10503,91915,95558
2025-05-29 11:27:31.802,102423,13765,10502,91886,95546
2025-05-29 11:27:31.814,102418,13763,10502,91856,95520
2025-05-29 11:27:31.826,102416,13760,10504,91838,95516
2025-05-29 11:27:31.835,102388,13744,10502,91802,95491
2025-05-29 11:27:31.846,102385,13742,10488,91793,95488
2025-05-29 11:27:31.863,102373,13742,10489,91775,95474
2025-05-29 11:27:31.866,102348,13739,10473,91752,95458
2025-05-29 11:27:31.873,102359,13721,10473,91696,95438
2025-05-29 11:27:31.886,102331,13727,10471,91687,95416
2025-05-29 11:27:31.894,102322,13712,10470,91642,95387
2025-05-29 11:27:31.906,102298,13703,10460,91614,95360
2025-05-29 11:27:31.926,102287,13700,10460,91589,95349
2025-05-29 11:27:31.928,102289,13702,10441,91563,95313
2025-05-29 11:27:31.934,102272,13704,10444,91530,95300
2025-05-29 11:27:31.946,102271,13697,10443,91492,95280
2025-05-29 11:27:31.954,102270,13694,10448,91488,95264
2025-05-29 11:27:31.966,102272,13694,10446,91471,95244
2025-05-29 11:27:31.973,102289,13683,10440,91463,95243
2025-05-29 11:27:31.990,102307,13684,10443,91455,95230
2025-05-29 11:27:31.994,102316,13681,10429,91445,95229
2025-05-29 11:27:32.006,102334,13681,10437,91462,95230
2025-05-29 11:27:32.013,102324,13675,10437,91491,95243
2025-05-29 11:27:32.026,102364,13687,10451,91506,95269
2025-05-29 11:27:32.033,102363,13696,10451,91535,95274
2025-05-29 11:27:32.053,102376,13692,10451,91540,95283
2025-05-29 11:27:32.054,102380,13695,10454,91565,95284
2025-05-29 11:27:32.066,102370,13695,10455,91569,95299
2025-05-29 11:27:32.074,102370,13685,10465,91563,95292
2025-05-29 11:27:32.086,102395,13678,10440,91538,95268
2025-05-29 11:27:32.097,102401,13679,10440,91522,95265
2025-05-29 11:27:32.116,102417,13665,10444,91498,95238
2025-05-29 11:27:32.118,102474,13671,10434,91445,95209
2025-05-29 11:27:32.126,102520,13673,10436,91413,95199
2025-05-29 11:27:32.138,102546,13667,10439,91377,95166
2025-05-29 11:27:32.146,102599,13668,10442,91362,95159
2025-05-29 11:27:32.158,102613,13667,10443,91335,95122
2025-05-29 11:27:32.179,102648,13663,10454,91317,95125
2025-05-29 11:27:32.181,102677,13658,10456,91311,95117
2025-05-29 11:27:32.185,102706,13669,10473,91316,95102
2025-05-29 11:27:32.198,102710,13673,10466,91344,95102
2025-05-29 11:27:32.206,102735,13674,10465,91328,95109
2025-05-29 11:27:32.218,102755,13668,10460,91354,95095
2025-05-29 11:27:32.226,102759,13670,10457,91338,95102
2025-05-29 11:27:32.246,102764,13669,10459,91376,95092
2025-05-29 11:27:32.248,102774,13674,10471,91389,95099
2025-05-29 11:27:32.258,102784,13674,10460,91407,95085
2025-05-29 11:27:32.265,102807,13685,10472,91474,95107
2025-05-29 11:27:32.278,102806,13678,10480,91474,95126
2025-05-29 11:27:32.286,102828,13679,10479,91494,95118
2025-05-29 11:27:32.308,102842,13687,10475,91518,95127
2025-05-29 11:27:32.310,102869,13678,10471,91535,95129
2025-05-29 11:27:32.317,102865,13691,10476,91542,95120
2025-05-29 11:27:32.325,102895,13688,10480,91583,95148
2025-05-29 11:27:32.338,102890,13686,10480,91630,95158
2025-05-29 11:27:32.346,102888,13698,10492,91657,95180
2025-05-29 11:27:32.357,102881,13707,10489,91713,95206
2025-05-29 11:27:32.373,102879,13693,10487,91770,95246
2025-05-29 11:27:32.378,102866,13698,10480,91791,95271
2025-05-29 11:27:32.390,102858,13693,10487,91796,95262
2025-05-29 11:27:32.398,102848,13702,10490,91830,95273
2025-05-29 11:27:32.410,102842,13688,10490,91894,95318
2025-05-29 11:27:32.418,102824,13721,10496,91974,95364
2025-05-29 11:27:32.437,102808,13725,10504,92057,95416
2025-05-29 11:27:32.438,102762,13731,10504,92155,95484
2025-05-29 11:27:32.450,102700,13726,10509,92290,95556
2025-05-29 11:27:32.458,102624,13737,10511,92406,95634
2025-05-29 11:27:32.470,102587,13739,10515,92514,95700
2025-05-29 11:27:32.478,102531,13728,10508,92609,95754
2025-05-29 11:27:32.500,102483,13732,10516,92642,95791
2025-05-29 11:27:32.501,102432,13720,10499,92705,95830
2025-05-29 11:27:32.510,102349,13717,10500,92784,95880
2025-05-29 11:27:32.517,102218,13708,10488,92905,95952
2025-05-29 11:27:32.530,102084,13686,10481,93036,96021
2025-05-29 11:27:32.534,102084,13686,10481,93036,96021
2025-05-29 11:27:32.538,101763,13662,10453,93230,96217
2025-05-29 11:27:32.565,101590,13641,10445,93384,96332
2025-05-29 11:27:32.567,101421,13626,10430,93503,96417
2025-05-29 11:27:32.569,101251,13616,10427,93600,96503
2025-05-29 11:27:32.579,101068,13587,10422,93707,96605
2025-05-29 11:27:32.590,100912,13576,10397,93784,96686
2025-05-29 11:27:32.598,100730,13550,10392,93878,96760
2025-05-29 11:27:32.609,100561,13534,10378,93947,96861
2025-05-29 11:27:32.629,100397,13506,10374,93993,96949
2025-05-29 11:27:32.630,100214,13486,10351,94070,97019
2025-05-29 11:27:32.637,100046,13467,10342,94120,97095
2025-05-29 11:27:32.650,99888,13438,10339,94150,97171
2025-05-29 11:27:32.657,99750,13405,10319,94147,97210
2025-05-29 11:27:32.670,99565,13382,10297,94156,97264
2025-05-29 11:27:32.693,99410,13351,10307,94193,97315
2025-05-29 11:27:32.694,99220,13326,10291,94182,97376
2025-05-29 11:27:32.702,99069,13303,10275,94179,97434
2025-05-29 11:27:32.709,98931,13279,10272,94165,97483
2025-05-29 11:27:32.722,98793,13253,10253,94140,97494
2025-05-29 11:27:32.730,98648,13240,10255,94117,97530
2025-05-29 11:27:32.742,98465,13236,10252,94117,97583
2025-05-29 11:27:32.757,98224,13232,10251,94108,97629
2025-05-29 11:27:32.761,97904,13233,10245,94099,97674
2025-05-29 11:27:32.770,97511,13239,10239,94040,97696
2025-05-29 11:27:32.782,97031,13223,10209,93916,97706
2025-05-29 11:27:32.789,96523,13202,10190,93751,97658
2025-05-29 11:27:32.802,95986,13181,10173,93503,97566
2025-05-29 11:27:32.822,95441,13151,10165,93210,97414
2025-05-29 11:27:32.823,94920,13132,10139,92847,97226
2025-05-29 11:27:32.829,94458,13084,10134,92472,97003
2025-05-29 11:27:32.842,94026,13049,10116,92050,96778
2025-05-29 11:27:32.850,93626,13024,10101,91717,96544
2025-05-29 11:27:32.862,93293,12999,10101,91347,96295
2025-05-29 11:27:32.869,92981,12962,10088,91012,96060
2025-05-29 11:27:32.886,92752,12929,10082,90705,95857
2025-05-29 11:27:32.890,92590,12911,10059,90460,95683
2025-05-29 11:27:32.902,92506,12884,10067,90256,95525
2025-05-29 11:27:32.910,92417,12871,10060,90114,95403
2025-05-29 11:27:32.922,92442,12853,10049,90033,95299
2025-05-29 11:27:32.929,92494,12848,10047,90048,95266
2025-05-29 11:27:32.949,92572,12840,10032,90074,95266
2025-05-29 11:27:32.950,92685,12830,10039,90159,95318
2025-05-29 11:27:32.962,92808,12837,10050,90272,95360
2025-05-29 11:27:32.970,92929,12831,10039,90378,95396
2025-05-29 11:27:32.982,93061,12845,10045,90500,95411
2025-05-29 11:27:32.990,93189,12857,10038,90568,95457
2025-05-29 11:27:33.013,93282,12854,10037,90655,95491
2025-05-29 11:27:33.014,93394,12834,10034,90718,95502
2025-05-29 11:27:33.022,93532,12849,10026,90752,95489
2025-05-29 11:27:33.029,93696,12836,10014,90838,95484
2025-05-29 11:27:33.042,93918,12835,9998,90902,95487
2025-05-29 11:27:33.049,94187,12828,9989,91011,95500
2025-05-29 11:27:33.062,94506,12807,9976,91158,95534
2025-05-29 11:27:33.078,94867,12808,9960,91297,95555
2025-05-29 11:27:33.082,95288,12803,9936,91436,95553
2025-05-29 11:27:33.090,95786,12805,9925,91522,95531
2025-05-29 11:27:33.102,96259,12800,9924,91624,95525
2025-05-29 11:27:33.110,96671,12823,9923,91721,95507
2025-05-29 11:27:33.122,97032,12844,9950,91789,95488
2025-05-29 11:27:33.143,97405,12869,9961,91871,95505
2025-05-29 11:27:33.144,97789,12901,9986,91956,95533
2025-05-29 11:27:33.154,98128,12930,10028,92086,95613
2025-05-29 11:27:33.162,98462,12977,10064,92209,95694
2025-05-29 11:27:33.174,98711,12999,10101,92380,95809
2025-05-29 11:27:33.182,98921,13050,10131,92531,95950
2025-05-29 11:27:33.206,99101,13086,10162,92664,96041
2025-05-29 11:27:33.207,99234,13104,10182,92792,96140
2025-05-29 11:27:33.214,99292,13113,10195,92896,96223
2025-05-29 11:27:33.222,99296,13156,10226,93036,96316
2025-05-29 11:27:33.234,99232,13154,10224,93164,96412
2025-05-29 11:27:33.242,99109,13158,10214,93239,96497
2025-05-29 11:27:33.254,98943,13154,10198,93290,96554
2025-05-29 11:27:33.270,98779,13134,10174,93333,96584
2025-05-29 11:27:33.274,98630,13094,10129,93335,96592
2025-05-29 11:27:33.282,98494,13080,10106,93299,96572
2025-05-29 11:27:33.294,98405,13055,10077,93250,96530
2025-05-29 11:27:33.302,98352,13025,10059,93229,96516
2025-05-29 11:27:33.314,98285,13011,10041,93214,96513
2025-05-29 11:27:33.333,98244,12984,10051,93197,96519
2025-05-29 11:27:33.335,98217,12981,10033,93181,96507
2025-05-29 11:27:33.342,98219,12970,10035,93180,96499
2025-05-29 11:27:33.354,98236,12963,10007,93171,96487
2025-05-29 11:27:33.362,98309,12953,10023,93166,96500
2025-05-29 11:27:33.373,98381,12950,10020,93157,96474
2025-05-29 11:27:33.382,98503,12954,10040,93159,96464
2025-05-29 11:27:33.398,98592,12969,10045,93195,96479
2025-05-29 11:27:33.402,98676,12954,10056,93196,96486
2025-05-29 11:27:33.414,98769,12979,10079,93234,96524
2025-05-29 11:27:33.422,98872,12983,10092,93293,96557
2025-05-29 11:27:33.434,98973,12991,10117,93336,96562
2025-05-29 11:27:33.442,99092,13007,10124,93369,96624
2025-05-29 11:27:33.462,99188,13027,10137,93419,96645
2025-05-29 11:27:33.464,99288,13030,10172,93467,96665
2025-05-29 11:27:33.473,99343,13051,10181,93498,96704
2025-05-29 11:27:33.481,99369,13056,10182,93533,96729
2025-05-29 11:27:33.494,99355,13065,10191,93546,96728
2025-05-29 11:27:33.506,99313,13063,10188,93531,96725
2025-05-29 11:27:33.526,99224,13057,10165,93492,96697
2025-05-29 11:27:33.527,99138,13049,10131,93410,96639
2025-05-29 11:27:33.534,99090,13028,10109,93286,96529
2025-05-29 11:27:33.545,99096,13007,10067,93144,96390
2025-05-29 11:27:33.553,99166,12978,10034,92992,96245
2025-05-29 11:27:33.566,99269,12955,10019,92821,96081
2025-05-29 11:27:33.574,99427,12938,9997,92660,95948
2025-05-29 11:27:33.589,99621,12922,9982,92516,95804
2025-05-29 11:27:33.594,99836,12915,9965,92382,95667
2025-05-29 11:27:33.606,100040,12886,9968,92236,95566
2025-05-29 11:27:33.614,100235,12899,9990,92087,95459
2025-05-29 11:27:33.626,100435,12895,9978,91986,95355
2025-05-29 11:27:33.633,100638,12901,10014,91926,95296
2025-05-29 11:27:33.653,100803,12917,10028,91896,95304
2025-05-29 11:27:33.654,100974,12942,10057,91897,95303
2025-05-29 11:27:33.665,101106,12965,10091,91916,95329
2025-05-29 11:27:33.674,101178,12962,10119,91994,95382
2025-05-29 11:27:33.686,101266,12996,10137,92076,95448
2025-05-29 11:27:33.695,101276,13012,10157,92196,95548
2025-05-29 11:27:33.717,101249,13033,10175,92333,95642
2025-05-29 11:27:33.719,101195,13040,10181,92470,95746
2025-05-29 11:27:33.727,101099,13052,10186,92590,95848
2025-05-29 11:27:33.738,100975,13040,10181,92723,95955
2025-05-29 11:27:33.739,100975,13040,10181,92723,95955
2025-05-29 11:27:33.745,100702,13039,10151,92898,96063
2025-05-29 11:27:33.754,100584,13022,10128,92924,96083
2025-05-29 11:27:33.766,100446,13017,10122,92965,96120
2025-05-29 11:27:33.781,100324,13013,10103,93007,96160
2025-05-29 11:27:33.786,100211,13014,10104,93046,96196
2025-05-29 11:27:33.798,100141,13019,10105,93068,96226
2025-05-29 11:27:33.806,100051,13027,10110,93123,96262
2025-05-29 11:27:33.818,100008,13022,10101,93163,96339
2025-05-29 11:27:33.826,99938,13030,10115,93228,96384
2025-05-29 11:27:33.844,99919,13028,10119,93292,96428
2025-05-29 11:27:33.846,99896,13034,10113,93342,96476
2025-05-29 11:27:33.857,99892,13035,10126,93352,96503
2025-05-29 11:27:33.866,99883,13030,10126,93352,96491
2025-05-29 11:27:33.878,99884,13020,10118,93330,96455
2025-05-29 11:27:33.886,99854,13023,10121,93345,96460
2025-05-29 11:27:33.908,99820,13028,10123,93336,96466
2025-05-29 11:27:33.909,99807,13024,10119,93348,96475
2025-05-29 11:27:33.917,99802,13026,10117,93328,96506
2025-05-29 11:27:33.926,99816,13032,10134,93302,96468
2025-05-29 11:27:33.937,99825,13032,10131,93301,96476
2025-05-29 11:27:33.946,99852,13039,10140,93320,96500
2025-05-29 11:27:33.972,99848,13054,10153,93336,96524
2025-05-29 11:27:33.973,99877,13046,10158,93353,96543
2025-05-29 11:27:33.978,99893,13057,10163,93397,96568
2025-05-29 11:27:33.986,99883,13056,10173,93433,96611
2025-05-29 11:27:33.998,99896,13065,10170,93472,96635
2025-05-29 11:27:34.007,99884,13052,10182,93528,96682
2025-05-29 11:27:34.018,99865,13038,10166,93544,96717
2025-05-29 11:27:34.036,99821,13031,10163,93590,96735
2025-05-29 11:27:34.037,99770,13015,10152,93602,96772
2025-05-29 11:27:34.046,99682,13006,10132,93639,96794
2025-05-29 11:27:34.057,99625,12990,10111,93656,96824
2025-05-29 11:27:34.067,99556,12978,10106,93674,96845
2025-05-29 11:27:34.078,99480,12970,10099,93673,96852
2025-05-29 11:27:34.085,99410,12951,10086,93690,96860
2025-05-29 11:27:34.101,99357,12942,10080,93688,96883
2025-05-29 11:27:34.106,99326,12920,10074,93689,96901
2025-05-29 11:27:34.117,99270,12920,10068,93699,96921
2025-05-29 11:27:34.126,99248,12929,10070,93720,96931
2025-05-29 11:27:34.137,99205,12921,10072,93733,96958
2025-05-29 11:27:34.146,99183,12922,10079,93762,96990
2025-05-29 11:27:34.165,99170,12923,10076,93767,97011
2025-05-29 11:27:34.166,99121,12915,10079,93820,97064
2025-05-29 11:27:34.177,99103,12919,10074,93842,97093
2025-05-29 11:27:34.186,99058,12899,10065,93856,97130
2025-05-29 11:27:34.198,99015,12908,10077,93871,97133
2025-05-29 11:27:34.210,98954,12901,10060,93856,97131
2025-05-29 11:27:34.229,98894,12898,10060,93829,97131
2025-05-29 11:27:34.231,98847,12888,10047,93796,97100
2025-05-29 11:27:34.238,98816,12887,10042,93758,97056
2025-05-29 11:27:34.250,98772,12891,10039,93731,97034
2025-05-29 11:27:34.258,98731,12868,10044,93666,96989
2025-05-29 11:27:34.270,98704,12866,10029,93652,96960
2025-05-29 11:27:34.278,98661,12871,10022,93614,96930
2025-05-29 11:27:34.294,98612,12873,10018,93561,96882
2025-05-29 11:27:34.297,98569,12870,10003,93513,96852
2025-05-29 11:27:34.310,98505,12864,10009,93481,96815
2025-05-29 11:27:34.318,98440,12875,10002,93431,96798
2025-05-29 11:27:34.330,98371,12861,9988,93393,96781
2025-05-29 11:27:34.337,98272,12863,9985,93325,96752
2025-05-29 11:27:34.357,98201,12850,9977,93289,96730
2025-05-29 11:27:34.358,98104,12850,9978,93233,96686
2025-05-29 11:27:34.370,97991,12852,9966,93179,96678
2025-05-29 11:27:34.377,97863,12847,9966,93123,96662
2025-05-29 11:27:34.389,97722,12843,9957,93058,96630
2025-05-29 11:27:34.398,97596,12826,9947,92963,96588
2025-05-29 11:27:34.422,97466,12826,9917,92875,96522
2025-05-29 11:27:34.423,97357,12807,9908,92771,96450
2025-05-29 11:27:34.431,97259,12788,9895,92649,96403
2025-05-29 11:27:34.438,97182,12775,9893,92514,96301
2025-05-29 11:27:34.450,97134,12758,9888,92388,96184
2025-05-29 11:27:34.458,97121,12747,9867,92280,96108
2025-05-29 11:27:34.470,97120,12739,9874,92193,96049
2025-05-29 11:27:34.486,97122,12736,9862,92162,96032
2025-05-29 11:27:34.490,97125,12718,9851,92115,95947
2025-05-29 11:27:34.498,97150,12719,9847,92071,95927
2025-05-29 11:27:34.510,97200,12695,9854,92056,95893
2025-05-29 11:27:34.518,97278,12720,9880,92034,95882
2025-05-29 11:27:34.530,97332,12723,9878,92055,95876
2025-05-29 11:27:34.550,97409,12733,9905,92062,95905
2025-05-29 11:27:34.561,97431,12745,9916,92115,95932
2025-05-29 11:27:34.569,97473,12764,9924,92186,95959
2025-05-29 11:27:34.582,97504,12776,9943,92220,96019
2025-05-29 11:27:34.590,97535,12779,9957,92272,96026
2025-05-29 11:27:34.613,97528,12789,9964,92309,96071
2025-05-29 11:27:34.614,97559,12797,9986,92365,96133
2025-05-29 11:27:34.622,97554,12807,9995,92446,96186
2025-05-29 11:27:34.630,97577,12806,10002,92492,96214
2025-05-29 11:27:34.642,97569,12820,10010,92559,96243
2025-05-29 11:27:34.649,97547,12824,10013,92609,96287
2025-05-29 11:27:34.662,97545,12832,10015,92643,96294
2025-05-29 11:27:34.678,97534,12827,10015,92642,96311
2025-05-29 11:27:34.681,97509,12825,10025,92670,96329
2025-05-29 11:27:34.690,97457,12836,10043,92698,96373
2025-05-29 11:27:34.702,97421,12851,10054,92752,96400
2025-05-29 11:27:34.709,97363,12859,10062,92809,96471
2025-05-29 11:27:34.722,97298,12879,10078,92824,96488
2025-05-29 11:27:34.742,97207,12879,10085,92832,96524
2025-05-29 11:27:34.743,97096,12885,10105,92855,96576
2025-05-29 11:27:34.745,97096,12885,10105,92855,96576
2025-05-29 11:27:34.749,96744,12912,10136,92867,96691
2025-05-29 11:27:34.762,96483,12923,10138,92845,96718
2025-05-29 11:27:34.770,96204,12924,10144,92774,96735
2025-05-29 11:27:34.782,95855,12930,10137,92654,96711
2025-05-29 11:27:34.790,95527,12925,10140,92517,96655
2025-05-29 11:27:34.805,95115,12908,10136,92335,96612
2025-05-29 11:27:34.810,94752,12891,10124,92098,96516
2025-05-29 11:27:34.822,94314,12864,10114,91822,96402
2025-05-29 11:27:34.830,93911,12836,10115,91505,96250
2025-05-29 11:27:34.841,93519,12807,10110,91155,96077
2025-05-29 11:27:34.850,93140,12764,10098,90799,95887
2025-05-29 11:27:34.870,92786,12741,10106,90420,95671
2025-05-29 11:27:34.871,92428,12697,10094,90015,95430
2025-05-29 11:27:34.881,92117,12681,10082,89605,95155
2025-05-29 11:27:34.894,91819,12646,10079,89185,94897
2025-05-29 11:27:34.902,91578,12602,10055,88802,94602
2025-05-29 11:27:34.913,91217,12526,10038,88339,94249
2025-05-29 11:27:34.933,90878,12456,9992,87657,93613
2025-05-29 11:27:34.935,90638,12405,9939,86909,92990
2025-05-29 11:27:34.942,90509,12397,9919,86390,92567
2025-05-29 11:27:34.954,90515,12371,9876,86121,92360
2025-05-29 11:27:34.962,90574,12349,9828,85965,92189
2025-05-29 11:27:34.973,90650,12338,9810,85896,92166
2025-05-29 11:27:34.982,90629,12320,9797,85891,92193
2025-05-29 11:27:34.998,90460,12285,9776,85690,92068
2025-05-29 11:27:35.001,90276,12267,9757,85156,91731
2025-05-29 11:27:35.014,90067,12229,9746,84483,91300
2025-05-29 11:27:35.021,89927,12209,9741,83863,90941
2025-05-29 11:27:35.033,89782,12176,9721,83331,90624
2025-05-29 11:27:35.042,89710,12161,9710,82896,90351
2025-05-29 11:27:35.062,89652,12171,9725,82643,90219
2025-05-29 11:27:35.063,89614,12172,9727,82582,90188
2025-05-29 11:27:35.074,89574,12179,9733,82598,90184
2025-05-29 11:27:35.082,89550,12175,9746,82531,90149
2025-05-29 11:27:35.094,89527,12177,9747,82414,90083
2025-05-29 11:27:35.102,89527,12180,9747,82302,90034
2025-05-29 11:27:35.126,89534,12189,9751,82224,89976
2025-05-29 11:27:35.127,89563,12179,9755,82171,89934
2025-05-29 11:27:35.134,89575,12202,9756,82120,89922
2025-05-29 11:27:35.142,89593,12194,9777,82092,89898
2025-05-29 11:27:35.154,89593,12218,9785,82093,89920
2025-05-29 11:27:35.162,89601,12215,9787,82109,89961
2025-05-29 11:27:35.174,89580,12234,9809,82130,89979
2025-05-29 11:27:35.189,89565,12239,9841,82128,90018
2025-05-29 11:27:35.193,89524,12260,9845,82077,90038
2025-05-29 11:27:35.202,89491,12268,9860,81974,90033
2025-05-29 11:27:35.215,89454,12260,9871,81913,90045
2025-05-29 11:27:35.222,89415,12273,9875,81855,90052
2025-05-29 11:27:35.233,89336,12268,9900,81819,90053
2025-05-29 11:27:35.252,89267,12289,9904,81766,90064
2025-05-29 11:27:35.253,89183,12284,9911,81710,90085
2025-05-29 11:27:35.266,89110,12303,9918,81660,90079
2025-05-29 11:27:35.273,89008,12311,9924,81638,90131
2025-05-29 11:27:35.285,88929,12326,9930,81605,90130
2025-05-29 11:27:35.293,88825,12328,9920,81555,90134
2025-05-29 11:27:35.316,88754,12338,9935,81491,90134
2025-05-29 11:27:35.318,88630,12348,9942,81413,90089
2025-05-29 11:27:35.326,88516,12355,9937,81308,90080
2025-05-29 11:27:35.334,88415,12356,9947,81165,90028
2025-05-29 11:27:35.345,88318,12355,9946,80996,89930
2025-05-29 11:27:35.350,88318,12355,9946,80996,89930
2025-05-29 11:27:35.354,88145,12352,9950,80691,89738
2025-05-29 11:27:35.381,88067,12354,9934,80554,89646
2025-05-29 11:27:35.382,88001,12353,9943,80416,89544
2025-05-29 11:27:35.385,87935,12339,9947,80303,89465
2025-05-29 11:27:35.394,87863,12349,9948,80161,89380
2025-05-29 11:27:35.406,87821,12324,9949,80058,89326
2025-05-29 11:27:35.413,87782,12342,9957,79940,89233
2025-05-29 11:27:35.425,87730,12333,9954,79838,89182
2025-05-29 11:27:35.445,87709,12342,9959,79734,89108
2025-05-29 11:27:35.446,87652,12330,9958,79626,89053
2025-05-29 11:27:35.453,87598,12342,9962,79544,88997
2025-05-29 11:27:35.466,87561,12342,9965,79462,88936
2025-05-29 11:27:35.473,87508,12328,9966,79361,88877
2025-05-29 11:27:35.486,87465,12335,9966,79293,88805
2025-05-29 11:27:35.494,87435,12337,9974,79227,88759
2025-05-29 11:27:35.509,87407,12321,9990,79169,88721
2025-05-29 11:27:35.518,87376,12332,9987,79118,88678
2025-05-29 11:27:35.526,87345,12323,9971,79083,88646
2025-05-29 11:27:35.538,87329,12326,9971,79041,88608
2025-05-29 11:27:35.546,87295,12335,9989,79024,88603
2025-05-29 11:27:35.557,87294,12324,9975,79005,88574
2025-05-29 11:27:35.573,87249,12324,10008,79004,88561
2025-05-29 11:27:35.577,87259,12328,9980,79000,88562
2025-05-29 11:27:35.586,87225,12331,9976,78988,88561
2025-05-29 11:27:35.598,87226,12340,9981,79006,88566
2025-05-29 11:27:35.606,87206,12329,9957,79027,88579
2025-05-29 11:27:35.618,87201,12331,9993,79048,88590
2025-05-29 11:27:35.636,87207,12338,9964,79081,88604
2025-05-29 11:27:35.638,87210,12334,9983,79134,88609
2025-05-29 11:27:35.646,87203,12332,9971,79197,88655
2025-05-29 11:27:35.658,87206,12351,9986,79232,88677
2025-05-29 11:27:35.666,87205,12340,9974,79270,88712
2025-05-29 11:27:35.677,87209,12345,9971,79294,88735
2025-05-29 11:27:35.701,87214,12346,9975,79309,88753
2025-05-29 11:27:35.702,87211,12344,9972,79330,88778
2025-05-29 11:27:35.705,87204,12324,9990,79338,88784
2025-05-29 11:27:35.717,87206,12323,9975,79347,88806
2025-05-29 11:27:35.726,87212,12313,9970,79363,88810
2025-05-29 11:27:35.737,87217,12313,9976,79367,88831
2025-05-29 11:27:35.750,87207,12301,9965,79376,88846
2025-05-29 11:27:35.765,87202,12294,9964,79416,88865
2025-05-29 11:27:35.767,87227,12283,9947,79437,88874
2025-05-29 11:27:35.778,87241,12275,9952,79474,88885
2025-05-29 11:27:35.786,87254,12262,9942,79503,88908
2025-05-29 11:27:35.798,87265,12254,9939,79517,88926
2025-05-29 11:27:35.809,87274,12253,9923,79547,88939
2025-05-29 11:27:35.829,87277,12250,9937,79557,88973
2025-05-29 11:27:35.831,87277,12230,9915,79580,88972
2025-05-29 11:27:35.838,87298,12238,9924,79617,88987
2025-05-29 11:27:35.850,87282,12229,9924,79662,89009
2025-05-29 11:27:35.858,87297,12234,9917,79789,89087
2025-05-29 11:27:35.870,87292,12217,9916,79944,89182
2025-05-29 11:27:35.878,87276,12224,9924,80004,89235
2025-05-29 11:27:35.894,87273,12222,9934,80061,89288
2025-05-29 11:27:35.898,87252,12219,9942,80074,89290
2025-05-29 11:27:35.909,87260,12223,9937,80083,89314
2025-05-29 11:27:35.918,87264,12221,9939,80111,89315
2025-05-29 11:27:35.930,87258,12217,9934,80132,89298
2025-05-29 11:27:35.937,87258,12217,9934,80132,89298
2025-05-29 11:27:35.958,87267,12210,9943,80140,89292
2025-05-29 11:27:35.959,87267,12210,9943,80140,89292
2025-05-29 11:27:35.960,87274,12208,9937,80135,89282
2025-05-29 11:27:35.969,87276,12199,9940,80131,89252
2025-05-29 11:27:35.977,87276,12193,9920,80120,89244
2025-05-29 11:27:35.990,87271,12186,9926,80086,89215
2025-05-29 11:27:35.998,87265,12177,9931,80080,89218
2025-05-29 11:27:36.022,87249,12184,9924,80083,89203
2025-05-29 11:27:36.023,87234,12180,9923,80067,89199
2025-05-29 11:27:36.030,87217,12183,9917,80045,89179
2025-05-29 11:27:36.038,87218,12176,9914,79998,89152
2025-05-29 11:27:36.049,87217,12170,9898,79963,89117
2025-05-29 11:27:36.058,87214,12165,9906,79944,89082
2025-05-29 11:27:36.070,87214,12156,9898,79921,89076
2025-05-29 11:27:36.085,87208,12146,9884,79906,89065
2025-05-29 11:27:36.090,87200,12145,9884,79902,89073
2025-05-29 11:27:36.101,87199,12143,9880,79896,89054
2025-05-29 11:27:36.110,87191,12145,9871,79891,89036
2025-05-29 11:27:36.122,87178,12151,9868,79854,89032
2025-05-29 11:27:36.129,87165,12137,9871,79834,89018
2025-05-29 11:27:36.150,87140,12132,9877,79820,89009
2025-05-29 11:27:36.152,87142,12146,9868,79806,88997
2025-05-29 11:27:36.161,87133,12124,9864,79781,88990
2025-05-29 11:27:36.170,87116,12130,9859,79759,88972
2025-05-29 11:27:36.181,87109,12133,9861,79749,88936
2025-05-29 11:27:36.190,87104,12126,9868,79709,88934
2025-05-29 11:27:36.215,87100,12121,9855,79718,88925
2025-05-29 11:27:36.216,87102,12128,9871,79719,88901
2025-05-29 11:27:36.222,87097,12132,9852,79719,88912
2025-05-29 11:27:36.230,87086,12128,9847,79710,88907
2025-05-29 11:27:36.242,87084,12130,9853,79722,88921
2025-05-29 11:27:36.250,87071,12139,9865,79723,88903
2025-05-29 11:27:36.261,87070,12125,9856,79716,88911
2025-05-29 11:27:36.278,87055,12128,9860,79736,88902
2025-05-29 11:27:36.281,87058,12134,9861,79731,88886
2025-05-29 11:27:36.290,87059,12132,9848,79739,88898
2025-05-29 11:27:36.302,87064,12135,9859,79758,88909
2025-05-29 11:27:36.309,87053,12141,9859,79754,88930
2025-05-29 11:27:36.322,87046,12136,9856,79768,88908
2025-05-29 11:27:36.342,87036,12135,9861,79769,88917
2025-05-29 11:27:36.344,87044,12137,9860,79775,88909
2025-05-29 11:27:36.354,87047,12150,9860,79768,88917
2025-05-29 11:27:36.362,87041,12131,9855,79795,88922
2025-05-29 11:27:36.370,87060,12133,9849,79789,88936
2025-05-29 11:27:36.382,87064,12132,9855,79829,88945
2025-05-29 11:27:36.408,87055,12123,9844,79838,88954
2025-05-29 11:27:36.409,87051,12131,9846,79850,88953
2025-05-29 11:27:36.414,87058,12126,9855,79881,88973
2025-05-29 11:27:36.422,87049,12118,9843,79887,88990
2025-05-29 11:27:36.434,87058,12121,9841,79903,88996
2025-05-29 11:27:36.441,87076,12109,9833,79920,89013
2025-05-29 11:27:36.454,87105,12105,9822,79951,89020
2025-05-29 11:27:36.473,87117,12098,9823,79997,89036
2025-05-29 11:27:36.474,87128,12089,9811,80059,89096
2025-05-29 11:27:36.482,87138,12077,9814,80101,89111
2025-05-29 11:27:36.493,87120,12075,9799,80116,89134
2025-05-29 11:27:36.502,87120,12056,9798,80129,89142
2025-05-29 11:27:36.514,87110,12059,9787,80109,89127
2025-05-29 11:27:36.521,87089,12048,9787,80108,89120
2025-05-29 11:27:36.537,87081,12041,9775,80094,89106
2025-05-29 11:27:36.541,87102,12035,9779,80084,89081
2025-05-29 11:27:36.553,87068,12026,9779,80091,89076
2025-05-29 11:27:36.557,87068,12026,9779,80091,89076
2025-05-29 11:27:36.562,87054,12013,9763,80069,89061
2025-05-29 11:27:36.573,87036,12013,9764,80051,89065
2025-05-29 11:27:36.582,87021,12017,9759,80051,89056
2025-05-29 11:27:36.600,87010,12005,9762,80019,89034
2025-05-29 11:27:36.601,87014,11995,9754,80014,89010
2025-05-29 11:27:36.614,87010,11997,9751,79989,89027
2025-05-29 11:27:36.622,87021,11995,9750,79997,89004
2025-05-29 11:27:36.634,87027,11987,9753,80013,88993
2025-05-29 11:27:36.642,87028,11981,9744,80017,89005
2025-05-29 11:27:36.663,87035,11987,9739,80032,89006
2025-05-29 11:27:36.666,87019,11983,9739,80040,89025
2025-05-29 11:27:36.673,87018,11979,9744,80029,89024
2025-05-29 11:27:36.686,87009,11976,9739,80016,89025
2025-05-29 11:27:36.693,86993,11974,9735,80022,89029
2025-05-29 11:27:36.705,86997,11973,9745,80018,89006
2025-05-29 11:27:36.729,87002,11968,9734,80005,89016
2025-05-29 11:27:36.730,86988,11963,9741,79993,89007
2025-05-29 11:27:36.733,86989,11966,9742,79997,89008
2025-05-29 11:27:36.746,86963,11962,9745,80001,89004
2025-05-29 11:27:36.754,86968,11963,9747,80002,89001
2025-05-29 11:27:36.765,86959,11963,9735,79996,88979
2025-05-29 11:27:36.774,86966,11960,9742,79989,88980
2025-05-29 11:27:36.792,86941,11960,9749,79990,88970
2025-05-29 11:27:36.794,86942,11955,9744,79979,88959
2025-05-29 11:27:36.806,86939,11964,9740,79989,88962
2025-05-29 11:27:36.814,86942,11973,9741,79986,88933
2025-05-29 11:27:36.826,86940,11958,9758,79985,88943
2025-05-29 11:27:36.834,86938,11960,9754,79974,88946
2025-05-29 11:27:36.857,86924,11964,9737,79971,88958
2025-05-29 11:27:36.858,86929,11964,9745,79962,88938
2025-05-29 11:27:36.866,86923,11977,9755,79971,88930
2025-05-29 11:27:36.873,86926,11974,9757,79955,88933
2025-05-29 11:27:36.886,86932,11974,9764,79975,88957
2025-05-29 11:27:36.893,86948,11979,9765,79968,88947
2025-05-29 11:27:36.906,86927,11984,9758,79959,88930
2025-05-29 11:27:36.923,86918,11980,9769,79956,88928
2025-05-29 11:27:36.926,86910,11984,9762,79950,88935
2025-05-29 11:27:36.938,86921,11986,9766,79947,88946
2025-05-29 11:27:36.945,86914,11992,9770,79938,88941
2025-05-29 11:27:36.958,86912,11995,9782,79954,88934
2025-05-29 11:27:36.966,86912,12002,9780,79952,88940
2025-05-29 11:27:36.986,86916,11995,9780,79954,88924
2025-05-29 11:27:36.987,86906,12002,9786,79958,88940
2025-05-29 11:27:36.998,86914,12012,9793,79945,88942
2025-05-29 11:27:37.006,86905,12011,9785,79939,88944
2025-05-29 11:27:37.018,86902,12008,9792,79940,88911
2025-05-29 11:27:37.026,86905,12014,9796,79915,88897
2025-05-29 11:27:37.050,86904,12016,9798,79906,88907
2025-05-29 11:27:37.051,86903,12020,9793,79920,88909
2025-05-29 11:27:37.058,86893,12019,9801,79938,88901
2025-05-29 11:27:37.065,86899,12023,9795,79936,88898
2025-05-29 11:27:37.078,86904,12028,9814,79925,88897
2025-05-29 11:27:37.085,86890,12028,9808,79928,88904
2025-05-29 11:27:37.098,86884,12019,9813,79939,88896
2025-05-29 11:27:37.115,86895,12034,9806,79918,88898
2025-05-29 11:27:37.118,86897,12038,9813,79946,88891
2025-05-29 11:27:37.125,86902,12040,9810,79934,88894
2025-05-29 11:27:37.138,86912,12039,9814,79962,88906
2025-05-29 11:27:37.146,86897,12030,9820,79960,88907
2025-05-29 11:27:37.157,86897,12041,9822,79962,88914
2025-05-29 11:27:37.179,86890,12039,9833,79969,88932
2025-05-29 11:27:37.180,86886,12055,9819,79970,88909
2025-05-29 11:27:37.186,86883,12047,9837,79957,88907
2025-05-29 11:27:37.198,86877,12057,9834,79963,88913
2025-05-29 11:27:37.206,86909,12047,9832,79953,88894
2025-05-29 11:27:37.218,86883,12048,9833,79953,88909
2025-05-29 11:27:37.226,86892,12047,9821,79969,88921
2025-05-29 11:27:37.242,86893,12043,9834,79975,88935
2025-05-29 11:27:37.251,86893,12037,9824,79983,88930
2025-05-29 11:27:37.257,86875,12036,9826,79984,88954
2025-05-29 11:27:37.269,86893,12023,9820,80000,88957
2025-05-29 11:27:37.278,86887,12020,9814,80002,88958
2025-05-29 11:27:37.289,86881,12009,9813,80000,88952
2025-05-29 11:27:37.305,86888,12006,9813,80022,88962
2025-05-29 11:27:37.310,86896,12005,9809,80003,88970
2025-05-29 11:27:37.318,86865,11989,9804,80001,88964
2025-05-29 11:27:37.329,86852,11999,9800,79993,88955
2025-05-29 11:27:37.338,86848,11997,9808,79989,88950
2025-05-29 11:27:37.349,86860,11986,9794,79972,88943
2025-05-29 11:27:37.371,86841,11991,9794,79971,88938
2025-05-29 11:27:37.373,86845,11986,9799,79958,88935
2025-05-29 11:27:37.377,86845,11980,9798,79966,88938
2025-05-29 11:27:37.390,86848,11977,9792,79952,88936
2025-05-29 11:27:37.398,86843,11981,9800,79959,88924
2025-05-29 11:27:37.409,86835,11968,9798,79961,88923
2025-05-29 11:27:37.418,86843,11977,9790,79953,88927
2025-05-29 11:27:37.435,86827,11964,9799,79963,88933
2025-05-29 11:27:37.437,86817,11969,9792,79946,88919
2025-05-29 11:27:37.449,86826,11968,9795,79928,88899
2025-05-29 11:27:37.458,86823,11966,9801,79919,88892
2025-05-29 11:27:37.470,86825,11968,9800,79917,88884
2025-05-29 11:27:37.477,86831,11963,9795,79927,88881
2025-05-29 11:27:37.499,86830,11957,9795,79932,88880
2025-05-29 11:27:37.500,86836,11971,9797,79922,88883
2025-05-29 11:27:37.510,86813,11962,9798,79916,88864
2025-05-29 11:27:37.521,86817,11969,9794,79910,88869
2025-05-29 11:27:37.529,86815,11975,9807,79890,88879
2025-05-29 11:27:37.541,86806,11964,9794,79894,88867
2025-05-29 11:27:37.562,86814,11962,9804,79893,88868
2025-05-29 11:27:37.563,86799,11968,9802,79899,88841
2025-05-29 11:27:37.570,86780,11966,9800,79892,88865
2025-05-29 11:27:37.582,86791,11986,9806,79896,88873
2025-05-29 11:27:37.590,86804,11969,9798,79868,88864
2025-05-29 11:27:37.601,86793,11967,9798,79875,88852
2025-05-29 11:27:37.609,86797,11974,9805,79878,88861
2025-05-29 11:27:37.628,86790,11959,9812,79878,88858
2025-05-29 11:27:37.629,86804,11976,9812,79887,88841
2025-05-29 11:27:37.642,86782,11970,9807,79873,88861
2025-05-29 11:27:37.649,86772,11967,9816,79881,88844
2025-05-29 11:27:37.662,86767,11969,9824,79875,88863
2025-05-29 11:27:37.669,86766,11980,9827,79879,88845
2025-05-29 11:27:37.692,86768,11965,9825,79856,88842
2025-05-29 11:27:37.693,86777,11985,9825,79868,88837
2025-05-29 11:27:37.701,86770,11988,9829,79856,88838
2025-05-29 11:27:37.710,86768,11997,9836,79847,88841
2025-05-29 11:27:37.721,86775,11990,9835,79848,88813
2025-05-29 11:27:37.730,86762,11987,9830,79861,88809
2025-05-29 11:27:37.755,86774,11988,9837,79850,88806
2025-05-29 11:27:37.756,86773,11989,9838,79861,88815
2025-05-29 11:27:37.762,86785,11999,9843,79845,88813
2025-05-29 11:27:37.765,86785,11999,9843,79845,88813
2025-05-29 11:27:37.769,86746,11999,9860,79824,88803
2025-05-29 11:27:37.782,86732,12005,9861,79815,88789
2025-05-29 11:27:37.793,86720,12010,9863,79797,88791
2025-05-29 11:27:37.801,86716,12010,9862,79765,88777
2025-05-29 11:27:37.821,86719,12009,9863,79751,88750
2025-05-29 11:27:37.822,86718,12008,9866,79743,88740
2025-05-29 11:27:37.833,86717,12012,9868,79737,88748
2025-05-29 11:27:37.841,86705,12020,9878,79737,88721
2025-05-29 11:27:37.854,86704,12022,9878,79724,88719
2025-05-29 11:27:37.861,86701,12025,9871,79731,88725
2025-05-29 11:27:37.884,86695,12013,9874,79727,88724
2025-05-29 11:27:37.885,86696,12034,9884,79716,88722
2025-05-29 11:27:37.893,86685,12035,9887,79708,88728
2025-05-29 11:27:37.901,86666,12040,9894,79704,88707
2025-05-29 11:27:37.914,86674,12046,9888,79697,88720
2025-05-29 11:27:37.921,86664,12048,9896,79686,88705
2025-05-29 11:27:37.947,86655,12038,9910,79686,88694
2025-05-29 11:27:37.949,86656,12060,9894,79682,88693
2025-05-29 11:27:37.953,86658,12061,9907,79683,88698
2025-05-29 11:27:37.962,86651,12065,9922,79669,88705
2025-05-29 11:27:37.974,86651,12067,9923,79679,88691
2025-05-29 11:27:37.981,86640,12078,9928,79685,88700
2025-05-29 11:27:37.994,86658,12068,9927,79685,88692
2025-05-29 11:27:38.012,86652,12073,9923,79697,88688
2025-05-29 11:27:38.014,86665,12055,9920,79733,88725
2025-05-29 11:27:38.021,86690,12069,9942,79800,88776
2025-05-29 11:27:38.034,86734,12063,9927,79891,88855
2025-05-29 11:27:38.041,86740,12071,9943,79981,88924
2025-05-29 11:27:38.054,86771,12075,9930,80064,89003
2025-05-29 11:27:38.076,86801,12076,9940,80137,89036
2025-05-29 11:27:38.077,86810,12091,9947,80199,89081
2025-05-29 11:27:38.085,86830,12088,9954,80245,89128
2025-05-29 11:27:38.093,86827,12094,9961,80302,89155
2025-05-29 11:27:38.106,86830,12100,9968,80324,89175
2025-05-29 11:27:38.114,86832,12110,9971,80338,89164
2025-05-29 11:27:38.140,86828,12121,9991,80346,89173
2025-05-29 11:27:38.141,86849,12125,9987,80356,89192
2025-05-29 11:27:38.146,86845,12127,9997,80376,89198
2025-05-29 11:27:38.154,86841,12142,9997,80388,89194
2025-05-29 11:27:38.166,86854,12126,10007,80381,89197
2025-05-29 11:27:38.174,86860,12133,10003,80378,89199
2025-05-29 11:27:38.185,86853,12136,10009,80383,89209
2025-05-29 11:27:38.204,86841,12136,10001,80387,89189
2025-05-29 11:27:38.206,86853,12125,10011,80374,89191
2025-05-29 11:27:38.214,86847,12125,10012,80370,89194
2025-05-29 11:27:38.226,86846,12126,10017,80358,89172
2025-05-29 11:27:38.233,86846,12121,10013,80353,89161
2025-05-29 11:27:38.246,86854,12121,10001,80342,89155
2025-05-29 11:27:38.269,86846,12117,10009,80334,89150
2025-05-29 11:27:38.270,86839,12118,10006,80306,89126
2025-05-29 11:27:38.274,86828,12113,10010,80306,89128
2025-05-29 11:27:38.286,86837,12116,9995,80292,89114
2025-05-29 11:27:38.294,86829,12097,9990,80286,89110
2025-05-29 11:27:38.306,86824,12099,10000,80270,89110
2025-05-29 11:27:38.313,86828,12099,9988,80286,89101
2025-05-29 11:27:38.331,86822,12121,10002,80273,89091
2025-05-29 11:27:38.334,86799,12101,10005,80264,89103
2025-05-29 11:27:38.345,86798,12100,10007,80245,89087
2025-05-29 11:27:38.354,86784,12110,9997,80237,89078
2025-05-29 11:27:38.366,86788,12114,10013,80217,89075
2025-05-29 11:27:38.374,86774,12113,10006,80215,89061
2025-05-29 11:27:38.396,86775,12113,10009,80197,89044
2025-05-29 11:27:38.397,86768,12112,10013,80174,89049
2025-05-29 11:27:38.405,86761,12110,10015,80168,89035
2025-05-29 11:27:38.413,86750,12122,10012,80136,89037
2025-05-29 11:27:38.425,86733,12109,10017,80120,89007
2025-05-29 11:27:38.437,86739,12114,10018,80087,89001
2025-05-29 11:27:38.460,86715,12108,10014,80073,88997
2025-05-29 11:27:38.461,86709,12125,10029,80037,88997
2025-05-29 11:27:38.466,86687,12117,10031,80030,88991
2025-05-29 11:27:38.477,86674,12127,10021,80006,88974
2025-05-29 11:27:38.485,86670,12121,10029,79983,88977
2025-05-29 11:27:38.498,86661,12126,10027,79963,88961
2025-05-29 11:27:38.505,86668,12113,10038,79945,88957
2025-05-29 11:27:38.524,86650,12129,10035,79932,88948
2025-05-29 11:27:38.526,86639,12134,10037,79931,88943
2025-05-29 11:27:38.537,86646,12143,10044,79911,88943
2025-05-29 11:27:38.546,86654,12130,10048,79920,88921
2025-05-29 11:27:38.557,86660,12130,10050,79927,88944
2025-05-29 11:27:38.565,86667,12137,10056,79940,88948
2025-05-29 11:27:38.589,86667,12139,10059,79946,88942
2025-05-29 11:27:38.590,86661,12144,10058,79956,88947
2025-05-29 11:27:38.598,86659,12144,10063,79941,88947
2025-05-29 11:27:38.606,86657,12155,10059,79929,88959
2025-05-29 11:27:38.618,86657,12156,10068,79953,88950
2025-05-29 11:27:38.626,86660,12157,10076,79963,88973
2025-05-29 11:27:38.637,86665,12153,10077,79960,88960
2025-05-29 11:27:38.652,86653,12158,10070,79965,88985
2025-05-29 11:27:38.657,86666,12161,10081,79947,88966
2025-05-29 11:27:38.666,86664,12162,10081,79955,88978
2025-05-29 11:27:38.678,86656,12163,10077,79954,88960
2025-05-29 11:27:38.685,86643,12159,10089,79942,88974
2025-05-29 11:27:38.698,86657,12173,10091,79944,88977
2025-05-29 11:27:38.716,86663,12170,10102,79965,88978
2025-05-29 11:27:38.718,86669,12172,10095,79962,88991
2025-05-29 11:27:38.725,86679,12182,10104,79971,88975
2025-05-29 11:27:38.737,86671,12174,10109,79993,89002
2025-05-29 11:27:38.745,86686,12195,10125,80010,88998
2025-05-29 11:27:38.757,86687,12198,10125,80032,89025
2025-05-29 11:27:38.781,86695,12208,10124,80035,89023
2025-05-29 11:27:38.782,86704,12207,10134,80041,89024
2025-05-29 11:27:38.785,86705,12215,10144,80047,89042
2025-05-29 11:27:38.797,86707,12221,10144,80040,89043
2025-05-29 11:27:38.806,86710,12228,10147,80054,89043
2025-05-29 11:27:38.817,86715,12224,10155,80048,89051
2025-05-29 11:27:38.826,86703,12230,10160,80051,89057
2025-05-29 11:27:38.846,86693,12240,10161,80049,89055
2025-05-29 11:27:38.849,86695,12238,10163,80063,89059
